1682196247.00
64.000000
-0.00
-0.00
-0.00
-0.00
-0.00
-0.00
-0.00
-0.00
-0.00
-0.00
0.00
0.01
0.01
-0.00
-0.03
-0.05
-0.05
0.00
0.13
0.36
0.66
1.01
1.37
1.72
2.06
2.40
2.79
3.25
3.81
4.44
5.10
5.73
6.33
6.90
7.52
8.26
9.16
10.29
11.54
12.79
13.92
14.88
15.78
16.78
18.14
19.97
22.49
25.46
28.59
31.59
34.33
36.92
39.75
43.26
47.75
53.55
60.23
67.23
73.99
80.24
86.18
92.44
99.76
108.61
119.37
131.36
143.63
155.33
166.07
176.21
186.66
198.88
211.47
226.32
243.65
263.24
283.88
302.99
316.77
321.11
312.88
291.02
257.35
215.02
167.83
118.94
70.31
22.89
-22.77
-66.09
-106.51
-143.55
-177.82
-210.70
-243.92
-278.83
-315.44
-351.90
-384.49
-408.78
-420.85
-418.99
-404.41
-380.71
-352.53
-323.82
-296.73
-271.61
-247.85
-224.79
-202.58
-181.89
-163.43
-147.30
-132.93
-119.36
-105.79
-91.96
-78.19
-65.19
-53.64
-43.91
-35.86
-28.97
-22.61
-16.26
-9.72
-3.18
2.94
8.13
12.10
14.86
16.77
18.34
20.01
21.93
23.95
25.74
26.98
27.52
27.48
27.13
26.73
26.45
26.28
26.13
25.87
25.43
24.79
23.98
23.04
22.03
21.03
20.09
19.22
18.39
17.54
16.63
15.70
14.85
14.18
13.73
13.42
13.09
12.62
11.97
11.19
10.43
9.81
9.38
9.11
8.87
8.55
8.10
7.53
6.95
6.48
6.24
6.28
6.56
6.99
7.43
7.77
7.94
7.96
7.86
7.70
7.50
7.24
6.93
6.58
6.21
5.85
5.52
5.27
5.10
5.03
5.05
5.12
5.14
5.04
4.74
4.27
3.67
3.04
2.46
1.97
1.55
1.15
0.73
0.26
-0.26
-0.81
-1.37
-1.93
-2.44
-2.91
-3.32
-3.73
-4.18
-4.73
-5.37
-6.04
-6.66
-7.14
-7.46
-7.62
-7.65
-7.60
-7.51
-7.41
-7.28
-7.11
-6.92
-6.68
-6.40
-6.07
-5.69
-5.28
-4.85
-4.37
-3.83
-3.19
-2.45
-1.63
-0.81
-0.09
0.44
0.72
0.79
0.78
0.80
0.95
1.20
1.47
1.63
1.64
1.53
1.44
1.48
1.67
1.94
2.19
2.31
2.28
2.16
2.01
1.88
1.80
1.80
1.90
2.12
2.45
2.82
3.12
3.31
3.40
3.44
3.54
3.70
3.87
4.00
4.04
4.02
4.00
3.98
3.93
3.84
3.81
4.03
4.69
5.84
7.28
8.61
9.40
9.44
8.78
7.73
6.64
5.75
5.09
4.58
4.08
3.55
3.00
2.48
2.06
1.72
1.45
1.22
1.02
0.82
0.66
0.57
0.58
0.71
0.93
1.16
1.29
1.25
1.01
0.64
0.24
-0.09
-0.28
-0.31
-0.24
-0.12
0.01
0.14
0.29
0.48
0.72
0.97
1.23
1.50
1.82
2.24
2.72
3.15
3.34
3.14
2.55
1.72
0.91
0.40
0.34
0.70
1.33
1.98
2.48
2.69
2.56
2.08
1.29
0.31
-0.70
-1.51
-1.93
-1.90
-1.52
-1.06
-0.79
-0.87
-1.27
-1.82
-2.32
-2.72
-3.15
-3.86
-5.00
-6.58
-8.39
-10.11
-11.45
-12.19
-12.24
-11.60
-10.39
-8.83
-7.21
-5.81
-4.74
-3.87
-2.91
-1.53
0.42
2.80
5.27
7.44
9.03
10.01
10.48
10.60
10.49
10.21
9.82
9.38
8.96
8.62
8.39
8.23
8.14
8.09
8.07
8.09
8.10
8.06
7.91
7.63
7.23
6.75
6.23
5.69
5.16
4.66
4.25
3.98
3.92
4.12
4.55
5.15
5.73
6.11
6.13
5.71
4.94
3.98
3.08
2.39
2.00
1.85
1.80
1.75
1.61
1.39
1.11
0.85
0.62
0.42
0.24
0.06
-0.14
-0.33
-0.48
-0.56
-0.60
-0.66
-0.79
-0.98
-1.20
-1.37
-1.43
-1.36
-1.20
-0.95
-0.64
-0.28
0.13
0.56
0.94
1.21
1.32
1.28
1.18
1.10
1.11
1.19
1.31
1.41
1.45
1.44
1.43
1.48
1.61
1.78
1.94
2.00
1.93
1.75
1.53
1.34
1.22
1.18
1.19
1.25
1.36
1.50
1.63
1.70
1.64
1.43
1.10
0.69
0.22
-0.30
-0.93
-1.68
-2.52
-3.33
-4.00
-4.43
-4.61
-4.54
-4.28
-3.87
-3.32
-2.66
-1.92
-1.20
-0.59
-0.16
0.05
0.06
-0.06
-0.25
-0.45
-0.63
-0.77
-0.88
-0.98
-1.11
-1.32
-1.58
-1.85
-2.03
-2.03
-1.82
-1.47
-1.07
-0.71
-0.43
-0.30
-0.43
-0.94
-1.87
-3.03
-4.03
-4.41
-3.84
-2.42
-0.59
1.02
1.94
2.05
1.63
1.08
0.76
0.73
0.87
0.96
0.87
0.63
0.37
0.22
0.24
0.41
0.65
0.84
0.96
1.03
1.08
1.14
1.16
1.08
0.85
0.48
0.07
-0.22
-0.31
-0.22
-0.05
0.05
0.01
-0.13
-0.31
-0.44
-0.54
-0.69
-1.06
-1.71
-2.61
-3.55
-4.29
-4.61
-4.47
-4.02
-3.58
-3.47
-3.92
-4.93
-6.25
-7.50
-8.32
-8.54
-8.22
-7.58
-6.89
-6.37
-6.09
-6.09
-6.41
-6.98
-7.55
-7.50
-6.06
-2.62
2.75
9.15
15.13
19.27
20.84
20.09
17.98
15.65
13.79
12.52
11.51
10.46
9.30
8.28
7.67
7.56
7.74
7.81
7.51
6.74
5.68
4.63
3.83
3.37
3.10
2.80
2.25
1.40
0.35
-0.69
-1.57
-2.26
-2.82
-3.36
-3.94
-4.52
-5.00
-5.29
-5.36
-5.27
-5.13
-5.01
-4.92
-4.83
-4.70
-4.50
-4.27
-4.06
-3.91
-3.80
-3.64
-3.36
-2.93
-2.47
-2.21
-2.43
-3.28
-4.71
-6.46
-8.11
-9.37
-10.12
-10.45
-10.56
-10.53
-10.35
-9.91
-9.21
-8.38
-7.69
-7.40
-7.62
-8.29
-9.29
-10.55
-12.10
-14.03
-16.24
-18.48
-20.31
-21.48
-22.04
-22.53
-23.65
-25.98
-29.58
-33.89
-37.91
-40.75
-41.94
-41.72
-40.88
-40.42
-41.18
-43.68
-48.12
-54.11
-60.42
-64.68
-63.88
-55.34
-38.24
-14.51
11.44
34.26
49.78
56.57
56.16
51.73
46.38
41.83
38.27
35.17
32.27
29.95
28.99
29.83
32.17
35.04
37.27
37.99
37.00
34.75
32.03
29.59
27.88
26.86
26.14
25.15
23.43
20.86
17.74
14.60
12.02
10.31
9.44
9.06
8.72
8.09
7.09
5.81
4.44
3.17
2.12
1.37
0.96
0.87
1.05
1.40
1.78
2.05
2.10
1.96
1.71
1.53
1.61
2.12
3.18
4.74
6.65
8.59
10.26
11.40
11.88
11.77
11.19
10.35
9.41
8.50
7.69
7.02
6.49
6.08
5.77
5.50
5.23
4.91
4.51
4.05
3.55
3.06
2.65
2.38
2.22
2.12
2.02
1.84
1.58
1.23
0.82
0.38
-0.08
-0.50
-0.82
-0.99
-0.97
-0.80
-0.53
-0.25
-0.00
0.21
0.39
0.59
0.78
0.95
1.04
1.05
0.96
0.76
0.42
-0.09
-0.74
-1.46
-2.11
-2.53
-2.60
-2.32
-1.79
-1.18
-0.57
0.02
0.71
1.59
2.74
4.13
5.68
7.32
9.04
10.87
12.81
14.80
16.67
18.23
19.35
20.01
20.35
20.58
20.88
21.33
21.93
22.62
23.36
24.16
25.06
26.02
26.82
27.09
26.42
24.47
21.18
16.77
11.70
6.45
1.39
-3.26
-7.35
-10.71
-13.06
-14.07
-13.55
-11.58
-8.56
-5.09
-1.73
1.17
3.60
5.85
8.34
11.35
14.96
18.87
22.53
25.20
26.18
24.96
21.39
15.80
8.95
1.89
-4.41
-9.30
-12.72
-15.09
-17.13
-19.41
-22.14
-25.06
-27.65
-29.39
-30.07
-29.77
-28.82
-27.53
-26.08
-24.50
-22.76
-20.84
-18.81
-16.79
-14.89
-13.15
-11.54
-9.95
-8.23
-6.24
-3.90
-1.27
1.46
4.02
6.17
7.85
9.20
10.56
12.27
14.47
17.06
19.77
22.31
24.59
26.72
28.82
30.74
31.92
31.46
28.47
22.58
14.14
4.20
-5.85
-14.68
-21.46
-25.83
-27.76
-27.34
-24.76
-20.56
-15.87
-12.35
-11.60
-14.36
-19.97
-26.42
-31.20
-32.52
-30.06
-25.08
-19.61
-15.36
-12.96
-11.97
-11.40
-10.50
-9.19
-7.91
-7.22
-7.31
-7.89
-8.37
-8.23
-7.30
-5.90
-4.62
-4.04
-4.43
-5.62
-7.06
-8.12
-8.39
-7.84
-6.84
-5.90
-5.45
-5.58
-6.10
-6.64
-6.83
-6.50
-5.73
-4.74
-3.82
-3.15
-2.79
-2.66
-2.58
-2.40
-2.07
-1.59
-1.06
-0.59
-0.26
-0.12
-0.15
-0.25
-0.34
-0.33
-0.23
-0.14
-0.16
-0.37
-0.70
-1.01
-1.15
-1.10
-0.95
-0.89
-1.10
-1.57
-2.16
-2.66
-2.93
-3.00
-3.02
-3.16
-3.51
-3.97
-4.34
-4.48
-4.32
-3.98
-3.61
-3.34
-3.15
-2.97
-2.68
-2.25
-1.73
-1.19
-0.63
0.01
0.81
1.79
2.86
3.79
4.36
4.45
4.11
3.52
2.96
2.59
2.45
2.43
2.35
2.09
1.62
1.01
0.39
-0.16
-0.62
-1.06
-1.52
-2.03
-2.59
-3.14
-3.66
-4.12
-4.49
-4.77
-4.91
-4.90
-4.76
-4.56
-4.37
-4.23
-4.14
-4.06
-3.92
-3.63
-3.16
-2.53
-1.85
-1.31
-1.09
-1.24
-1.69
-2.26
-2.68
-2.78
-2.54
-2.05
-1.50
-1.12
-1.07
-1.39
-1.93
-2.26
-1.91
-0.50
1.96
4.97
7.73
9.42
9.65
8.56
6.75
4.92
3.49
2.53
1.82
1.12
0.36
-0.35
-0.80
-0.85
-0.50
0.10
0.79
1.39
1.80
2.01
2.09
2.16
2.35
2.73
3.29
3.87
4.22
4.13
3.41
1.99
-0.08
-2.67
-5.63
-8.77
-11.87
-14.83
-17.63
-20.43
-23.46
-26.82
-30.41
-33.85
-36.67
-38.54
-39.63
-40.59
-42.27
-45.18
-49.05
-52.79
-54.94
-54.44
-51.30
-46.66
-42.45
-40.52
-41.92
-46.64
-53.78
-61.87
-69.05
-73.18
-71.93
-63.39
-46.96
-24.12
1.61
25.69
44.26
55.60
60.49
61.46
61.22
61.41
62.26
63.11
63.33
62.91
62.32
61.92
61.55
60.49
57.96
53.70
48.21
42.68
38.41
36.20
36.00
36.87
37.38
36.35
33.51
29.94
27.80
29.54
36.74
49.21
64.92
80.66
93.29
101.01
103.84
103.38
101.93
101.55
103.31
107.15
111.89
115.56
115.74
110.09
97.02
76.35
49.68
20.16
-8.43
-32.77
-51.03
-63.12
-70.28
-74.20
-76.22
-77.10
-77.11
-76.42
-75.34
-74.26
-73.37
-72.48
-71.05
-68.51
-64.65
-59.81
-54.70
-50.10
-46.53
-44.01
-42.14
-40.33
-38.10
-35.24
-31.85
-28.31
-25.03
-22.37
-20.44
-19.12
-18.12
-17.14
-16.00
-14.70
-13.43
-12.42
-11.89
-11.84
-12.10
-12.38
-12.41
-12.06
-11.44
-10.87
-10.77
-11.52
-13.25
-15.80
-18.79
-21.75
-24.31
-26.37
-28.12
-29.91
-32.11
-34.92
-38.25
-41.76
-45.04
-47.72
-49.71
-51.23
-52.74
-54.83
-58.00
-62.51
-68.07
-73.67
-77.49
-77.18
-70.47
-56.00
-33.99
-6.47
23.12
50.89
73.58
89.29
97.75
99.93
97.47
92.08
85.20
77.90
70.92
64.67
59.35
54.88
50.99
47.34
43.61
39.69
35.70
31.98
28.92
26.76
25.50
24.92
24.66
24.41
24.06
23.72
23.59
23.81
24.36
25.04
25.61
25.91
25.97
26.01
26.33
27.13
28.38
29.78
30.79
30.84
29.50
26.67
22.67
18.17
14.04
11.01
9.43
9.10
9.37
9.42
8.60
6.72
4.08
1.31
-0.88
-2.03
-2.10
-1.46
-0.74
-0.57
-1.38
-3.23
-5.84
-8.68
-11.25
-13.23
-14.60
-15.61
-16.57
-17.68
-18.92
-20.12
-21.11
-21.83
-22.36
-22.83
-23.25
-23.50
-23.31
-22.42
-20.79
-18.62
-16.36
-14.46
-13.25
-12.75
-12.74
-12.84
-12.69
-12.10
-11.08
-9.82
-8.59
-7.61
-6.96
-6.55
-6.24
-5.89
-5.45
-5.00
-4.66
-4.52
-4.58
-4.75
-4.91
-4.95
-4.90
-4.78
-4.69
-4.66
-4.70
-4.77
-4.83
-4.83
-4.76
-4.61
-4.39
-4.09
-3.73
-3.35
-2.98
-2.63
-2.32
-2.02
-1.72
-1.39
-1.05
-0.73
-0.49
-0.36
-0.35
-0.44
-0.58
-0.70
-0.76
-0.72
-0.60
-0.41
-0.21
-0.03
0.10
0.20
0.29
0.40
0.57
0.76
0.92
0.96
0.85
0.63
0.44
0.45
0.83
1.63
2.76
3.99
5.07
5.79
6.09
6.10
6.10
6.40
7.22
8.53
10.08
11.42
12.16
12.13
11.54
10.87
10.67
11.28
12.61
14.23
15.54
16.15
15.96
15.28
14.60
14.40
14.97
16.48
18.96
22.22
25.61
27.91
27.55
23.28
14.87
3.50
-8.49
-18.54
-24.87
-27.12
-26.18
-23.49
-20.29
-17.16
-14.24
-11.65
-9.80
-9.26
-10.40
-12.96
-16.04
-18.52
-19.56
-18.89
-16.96
-14.53
-12.33
-10.71
-9.60
-8.64
-7.45
-5.79
-3.70
-1.52
0.30
1.40
1.62
1.10
0.20
-0.63
-1.07
-0.99
-0.48
0.27
1.09
1.78
2.20
2.16
1.55
0.36
-1.19
-2.75
-3.96
-4.64
-4.85
-4.85
-4.88
-5.07
-5.33
-5.53
-5.54
-5.39
-5.19
-5.13
-5.35
-5.89
-6.66
-7.48
-8.10
-8.27
-7.85
-6.88
-5.60
-4.29
-3.21
-2.45
-1.91
-1.40
-0.73
0.18
1.25
2.35
3.38
4.30
5.14
5.89
6.43
6.56
6.09
4.95
3.31
1.52
0.03
-0.86
-1.08
-0.86
-0.53
-0.38
-0.47
-0.64
-0.67
-0.40
0.13
0.73
1.15
1.25
1.06
0.77
0.58
0.62
0.93
1.40
1.93
2.44
2.93
3.45
4.03
4.65
5.22
5.59
5.58
5.04
3.91
2.26
0.32
-1.66
-3.44
-4.91
-6.13
-7.14
-7.96
-8.47
-8.52
-8.12
-7.41
-6.61
-5.69
-4.30
-1.84
2.03
6.99
11.87
15.01
15.02
11.47
5.20
-2.12
-8.68
-13.27
-15.53
-15.70
-14.23
-11.42
-7.46
-2.76
1.90
5.42
6.89
6.04
3.44
0.27
-2.33
-3.81
-4.37
-4.69
-5.31
-6.29
-7.23
-7.66
-7.46
-7.04
-7.04
-7.88
-9.40
-10.93
-11.66
-11.19
-9.77
-8.10
-6.96
-6.72
-7.14
-7.62
-7.56
-6.72
-5.41
-4.34
-4.19
-5.21
-6.92
-8.32
-8.39
-6.70
-3.71
-0.67
1.03
0.52
-2.12
-5.96
-9.78
-12.67
-14.46
-15.62
-16.95
-19.04
-22.04
-25.57
-29.03
-31.84
-33.69
-34.70
-35.43
-36.64
-39.01
-42.78
-47.63
-52.72
-57.10
-60.13
-61.80
-62.75
-63.90
-65.99
-69.34
-73.77
-78.84
-84.04
-88.70
-91.57
-90.55
-83.11
-67.41
-43.50
-13.94
16.98
44.94
67.38
84.33
97.58
109.01
119.07
126.48
129.29
126.53
119.17
109.84
101.48
95.87
92.91
91.01
88.32
83.69
77.15
69.70
62.60
56.74
52.25
48.67
45.21
41.30
36.81
32.14
27.97
24.95
23.31
22.78
22.72
22.43
21.50
19.93
18.14
16.59
15.54
14.88
14.23
13.16
11.36
8.78
5.52
1.83
-2.08
-5.98
-9.71
-13.10
-16.03
-18.36
-20.01
-20.89
-20.95
-20.17
-18.60
-16.28
-13.30
-9.75
-5.76
-1.55
2.53
6.10
8.88
10.96
12.76
14.91
17.99
22.19
27.19
32.30
36.81
40.25
42.65
44.50
46.48
49.30
53.49
59.32
66.61
74.39
80.78
83.23
79.18
67.16
47.53
22.57
-4.18
-29.17
-49.84
-65.09
-75.09
-80.64
-82.72
-82.23
-80.12
-77.33
-74.74
-72.89
-71.76
-70.86
-69.53
-67.29
-63.97
-59.88
-55.54
-51.57
-48.45
-46.32
-44.86
-43.32
-40.72
-36.29
-29.84
-21.98
-13.91
-7.04
-2.41
-0.35
-0.45
-1.85
-3.67
-5.36
-6.73
-7.87
-8.89
-9.77
-10.36
-10.55
-10.35
-9.99
-9.86
-10.37
-11.75
-13.99
-16.84
-19.98
-23.17
-26.32
-29.51
-32.85
-36.28
-39.58
-42.45
-44.72
-46.53
-48.22
-50.09
-52.06
-53.46
-53.09
-49.64
-42.15
-30.22
-14.01
5.91
28.66
53.05
77.41
99.70
117.84
130.29
136.58
137.49
134.72
130.31
125.98
122.79
120.97
120.07
119.26
117.58
114.27
109.04
101.99
93.60
84.33
74.48
64.10
53.25
42.08
30.78
19.31
7.23
-6.22
-21.46
-38.06
-54.41
-68.23
-77.48
-81.30
-80.38
-76.51
-71.77
-67.61
-64.53
-62.27
-60.30
-58.29
-56.18
-54.06
-51.92
-49.60
-46.90
-43.74
-40.24
-36.74
-33.55
-30.73
-28.02
-24.92
-21.00
-16.16
-10.86
-5.95
-2.31
-0.41
0.03
-0.05
0.65
3.25
8.25
15.32
23.36
30.72
35.56
36.30
32.06
23.13
11.02
-1.86
-12.89
-20.18
-23.09
-22.28
-19.18
-15.27
-11.54
-8.33
-5.62
-3.30
-1.43
-0.11
0.62
0.95
1.21
1.70
2.50
3.41
4.06
4.07
3.23
1.56
-0.65
-2.98
-5.07
-6.76
-8.17
-9.59
-11.25
-13.16
-15.02
-16.33
-16.67
-15.85
-14.00
-11.53
-8.88
-6.46
-4.52
-3.15
-2.32
-1.95
-1.89
-1.98
-2.07
-2.08
-1.98
-1.74
-1.36
-0.85
-0.24
0.37
0.91
1.32
1.66
2.11
2.86
4.02
5.58
7.42
9.29
10.93
12.01
12.14
10.96
8.21
3.95
-1.34
-6.83
-11.60
-15.00
-16.87
-17.54
-17.57
-17.37
-16.99
-16.09
-14.14
-10.80
-6.27
-1.27
3.14
5.98
6.66
5.18
2.00
-2.23
-6.77
-10.87
-13.65
-14.10
-11.49
-5.75
2.09
10.08
15.99
18.29
16.88
13.08
8.88
5.98
5.03
5.64
6.94
8.21
9.22
10.13
11.01
11.41
10.46
7.29
1.50
-6.21
-14.24
-20.61
-23.76
-23.30
-20.12
-15.88
-12.15
-9.63
-7.96
-6.18
-3.57
-0.23
2.93
4.86
5.06
3.99
2.72
2.18
2.58
3.30
3.38
2.19
-0.08
-2.61
-4.40
-4.85
-4.06
-2.70
-1.53
-1.01
-1.12
-1.43
-1.45
-0.98
-0.23
0.14
-0.59
-2.81
-6.39
-10.56
-14.30
-16.76
-17.64
-17.28
-16.45
-15.83
-15.69
-15.79
-15.56
-14.48
-12.27
-8.89
-4.36
1.34
8.17
15.81
23.49
30.02
34.22
35.38
33.57
29.61
24.65
19.67
15.17
11.21
7.66
4.52
1.97
0.28
-0.46
-0.50
-0.37
-0.72
-1.99
-4.22
-7.02
-9.82
-12.12
-13.67
-14.46
-14.52
-13.82
-12.25
-9.85
-6.96
-4.27
-2.56
-2.38
-3.75
-6.18
-8.90
-11.28
-13.03
-14.28
-15.33
-16.35
-17.35
-18.12
-18.43
-18.18
-17.45
-16.50
-15.77
-15.65
-16.33
-17.54
-18.48
-18.00
-15.10
-9.33
-1.14
8.32
17.59
25.47
31.35
35.16
37.22
37.85
37.25
35.44
32.52
28.64
23.82
17.57
8.79
-3.86
-21.20
-42.67
-66.18
-88.55
-106.80
-119.38
-126.83
-131.28
-135.26
-140.39
-146.81
-153.65
-160.09
-166.10
-172.33
-179.00
-184.91
-186.96
-181.08
-163.77
-133.50
-91.33
-40.28
15.77
72.98
127.85
177.10
217.59
246.83
263.83
269.82
268.13
263.04
257.86
253.38
247.46
236.20
216.11
186.26
149.17
110.02
74.52
46.69
27.61
15.69
8.13
2.68
-1.45
-3.86
-4.03
-2.27
0.14
1.60
1.13
-1.09
-3.95
-6.08
-6.52
-5.15
-2.57
0.13
1.82
1.58
-0.95
-5.47
-10.98
-16.07
-19.45
-20.44
-19.24
-16.75
-14.06
-11.92
-10.45
-9.30
-8.07
-6.56
-4.91
-3.30
-1.70
0.31
3.37
7.84
13.33
18.34
20.52
17.50
7.94
-7.60
-26.58
-45.31
-60.29
-69.52
-73.05
-72.53
-70.17
-67.68
-65.69
-63.99
-62.19
-60.10
-58.03
-56.32
-54.95
-53.39
-50.78
-46.30
-39.37
-29.65
-16.91
-1.00
17.92
38.98
60.49
80.29
96.48
108.08
115.36
119.43
121.57
122.54
122.52
121.44
119.47
117.29
115.91
116.12
117.95
120.63
122.68
122.29
117.62
107.38
91.10
69.60
45.12
20.79
-0.17
-15.54
-24.67
-28.70
-30.03
-31.53
-35.52
-43.15
-54.04
-66.55
-78.39
-87.42
-92.42
-93.31
-91.00
-86.81
-81.86
-76.69
-71.42
-66.13
-61.09
-56.86
-53.86
-52.10
-51.04
-49.85
-47.83
-44.63
-40.53
-36.18
-32.36
-29.56
-27.88
-26.89
-25.90
-24.20
-21.36
-17.36
-12.57
-7.62
-3.16
0.26
2.41
3.36
3.50
3.41
3.65
4.58
6.27
8.43
10.53
11.90
11.98
10.45
7.42
3.40
-0.77
-4.21
-6.23
-6.61
-5.58
-3.76
-1.76
0.01
1.48
2.81
4.19
5.64
6.90
7.50
6.89
4.68
0.80
-4.36
-9.99
-15.10
-18.83
-20.75
-20.99
-20.18
-19.09
-18.35
-18.18
-18.44
-18.81
-18.96
-18.74
-18.14
-17.20
-16.01
-14.61
-13.05
-11.46
-9.98
-8.76
-7.90
-7.43
-7.30
-7.36
-7.49
-7.54
-7.43
-7.28
-7.34
-7.85
-8.71
-9.36
-8.92
-6.81
-3.18
0.84
3.59
3.70
0.85
-4.01
-9.16
-13.11
-15.36
-16.56
-17.97
-20.57
-24.40
-28.62
-31.98
-33.68
-33.68
-32.62
-31.49
-31.07
-31.83
-33.79
-36.84
-40.51
-43.70
-44.54
-40.72
-30.46
-13.59
7.85
30.07
48.85
61.21
66.39
65.71
61.48
55.76
49.63
43.33
36.92
30.86
26.00
23.10
22.28
22.81
23.44
23.09
21.17
17.77
13.30
8.15
2.39
-4.06
-11.27
-19.01
-26.73
-33.75
-39.44
-43.41
-45.45
-45.40
-43.14
-38.70
-32.50
-25.49
-19.03
-14.42
-12.43
-12.99
-15.27
-18.15
-20.80
-23.04
-25.20
-27.66
-30.22
-31.99
-31.45
-27.16
-18.30
-5.08
11.32
29.18
46.75
62.75
76.43
87.46
95.70
101.03
103.33
102.63
99.23
93.80
87.15
80.07
73.05
66.07
58.66
50.17
40.14
28.67
16.50
4.87
-4.86
-11.70
-15.39
-16.41
-15.71
-14.27
-12.74
-11.38
-10.16
-9.06
-8.27
-8.06
-8.63
-9.86
-11.35
-12.61
-13.28
-13.28
-12.80
-12.20
-11.76
-11.58
-11.60
-11.65
-11.55
-11.16
-10.44
-9.41
-8.16
-6.82
-5.52
-4.37
-3.41
-2.67
-2.20
-2.07
-2.40
-3.27
-4.65
-6.36
-8.11
-9.62
-10.70
-11.31
-11.59
-11.75
-11.98
-12.37
-12.83
-13.19
-13.20
-12.70
-11.67
-10.29
-8.84
-7.61
-6.67
-5.83
-4.64
-2.55
0.81
5.52
11.30
17.59
23.85
29.72
35.15
40.38
45.67
51.07
56.28
60.68
63.58
64.62
63.90
61.98
59.71
57.87
56.96
57.27
58.92
61.75
65.03
67.10
65.59
58.26
44.24
24.86
3.53
-15.56
-29.11
-36.04
-37.54
-36.08
-33.86
-31.89
-29.92
-27.25
-23.65
-19.71
-16.49
-14.86
-14.89
-15.87
-16.74
-16.61
-15.32
-13.55
-12.46
-13.18
-16.09
-20.62
-25.37
-28.77
-29.78
-28.43
-25.66
-22.67
-20.35
-18.69
-16.94
-14.17
-9.79
-3.77
3.33
10.51
16.43
19.50
18.26
12.04
1.54
-11.02
-22.50
-30.06
-32.32
-29.88
-24.78
-19.45
-15.62
-13.86
-13.88
-15.11
-17.08
-19.54
-22.15
-24.35
-25.49
-25.12
-23.26
-20.30
-16.95
-13.90
-11.63
-10.35
-9.98
-10.19
-10.47
-10.31
-9.38
-7.70
-5.65
-3.79
-2.52
-1.93
-1.73
-1.48
-0.82
0.30
1.60
2.67
3.15
2.91
2.07
0.88
-0.38
-1.51
-2.44
-3.17
-3.76
-4.26
-4.69
-5.02
-5.21
-5.23
-5.07
-4.77
-4.43
-4.12
-3.89
-3.73
-3.56
-3.29
-2.93
-2.53
-2.19
-2.01
-2.02
-2.15
-2.31
-2.40
-2.35
-2.18
-1.94
-1.69
-1.46
-1.27
-1.05
-0.76
-0.38
0.04
0.37
0.50
0.40
0.09
-0.29
-0.59
-0.75
-0.78
-0.80
-0.91
-1.13
-1.37
-1.50
-1.37
-0.95
-0.31
0.38
0.94
1.24
1.28
1.17
1.06
1.12
1.40
1.84
2.23
2.37
2.10
1.43
0.48
-0.54
-1.45
-2.14
-2.59
-2.88
-3.12
-3.45
-3.93
-4.55
-5.19
-5.70
-5.95
-5.91
-5.69
-5.51
-5.55
-5.83
-6.16
-6.25
-5.87
-5.03
-4.00
-3.16
-2.79
-2.97
-3.57
-4.46
-5.55
-6.71
-7.57
-7.49
-5.80
-2.22
2.72
7.72
11.19
12.01
10.06
6.21
1.85
-1.93
-4.71
-6.74
-8.50
-10.27
-11.98
-13.38
-14.40
-15.30
-16.50
-18.29
-20.59
-22.98
-24.96
-26.28
-27.11
-27.93
-29.27
-31.38
-34.11
-36.94
-39.23
-40.53
-40.81
-40.52
-40.39
-41.10
-43.02
-46.01
-49.50
-52.87
-55.65
-57.67
-59.04
-59.90
-60.38
-60.61
-60.88
-61.48
-62.19
-61.70
-57.62
-47.41
-29.81
-6.03
20.32
44.56
63.09
74.83
81.30
85.28
88.94
92.82
96.01
97.42
96.93
95.71
95.43
97.15
100.54
104.13
106.17
105.52
102.18
97.01
91.14
85.30
79.63
73.85
67.76
61.46
55.28
49.27
42.86
34.95
24.48
11.27
-3.61
-18.04
-29.73
-37.20
-40.25
-39.89
-37.57
-34.46
-31.13
-27.68
-24.15
-20.85
-18.33
-17.08
-17.14
-18.03
-18.93
-19.03
-17.94
-15.90
-13.68
-12.20
-12.07
-13.27
-15.11
-16.57
-16.68
-15.00
-11.71
-7.52
-3.35
0.10
2.42
3.60
3.82
3.37
2.49
1.41
0.31
-0.67
-1.44
-2.01
-2.46
-2.91
-3.42
-4.00
-4.57
-5.07
-5.53
-6.05
-6.76
-7.70
-8.80
-9.89
-10.78
-11.35
-11.61
-11.68
-11.67
-11.67
-11.64
-11.49
-11.13
-10.51
-9.66
-8.61
-7.41
-6.00
-4.29
-2.19
0.36
3.36
6.78
10.68
15.14
20.27
26.04
32.20
38.25
43.61
47.78
50.49
51.88
52.39
52.57
52.92
53.63
54.55
55.26
55.33
54.45
52.67
50.40
48.14
46.33
45.21
44.78
44.73
44.35
42.47
37.74
29.19
16.91
2.35
-11.97
-23.45
-30.42
-32.81
-31.94
-29.64
-27.24
-25.11
-22.87
-20.13
-17.04
-14.38
-13.09
-13.61
-15.51
-17.64
-18.76
-18.02
-15.51
-12.08
-8.95
-7.15
-7.00
-8.12
-9.58
-10.33
-9.64
-7.24
-3.21
2.22
8.63
15.13
20.19
21.80
18.26
9.07
-4.46
-19.42
-32.40
-40.86
-44.08
-43.18
-40.20
-36.98
-34.33
-32.02
-29.43
-26.16
-22.40
-18.70
-15.61
-13.26
-11.45
-9.77
-7.94
-6.10
-4.79
-4.73
-6.40
-9.69
-13.76
-17.35
-19.28
-19.06
-17.12
-14.64
-12.89
-12.67
-13.87
-15.62
-16.81
-16.60
-14.80
-11.86
-8.47
-5.27
-2.59
-0.45
1.27
2.63
3.62
4.14
4.16
3.74
3.12
2.57
2.32
2.49
3.03
3.81
4.63
5.32
5.76
5.88
5.66
5.11
4.28
3.23
2.00
0.67
-0.71
-2.09
-3.42
-4.68
-5.86
-6.91
-7.81
-8.57
-9.23
-9.87
-10.56
-11.29
-11.90
-12.08
-11.54
-10.10
-7.83
-5.06
-2.22
0.29
2.22
3.52
4.30
4.66
4.70
4.42
3.82
2.91
1.81
0.73
-0.10
-0.47
-0.33
0.19
0.85
1.37
1.61
1.58
1.39
1.22
1.11
1.00
0.78
0.39
-0.13
-0.62
-0.90
-0.88
-0.58
-0.20
0.09
0.16
-0.00
-0.31
-0.62
-0.87
-1.03
-1.10
-1.09
-0.97
-0.70
-0.30
0.15
0.52
0.73
0.74
0.61
0.41
0.21
0.04
-0.07
-0.12
-0.08
0.06
0.28
0.49
0.59
0.53
0.33
0.05
-0.16
-0.24
-0.16
0.03
0.25
0.44
0.55
0.58
0.52
0.37
0.15
-0.13
-0.42
-0.70
-0.97
-1.20
-1.39
-1.55
-1.64
-1.67
-1.60
-1.45
-1.24
-0.96
-0.62
-0.21
0.22
0.62
0.89
0.96
0.84
0.68
0.67
1.04
1.93
3.34
5.12
7.10
9.09
11.01
12.79
14.39
15.76
16.80
17.47
17.71
17.47
16.66
15.24
13.17
10.54
7.59
4.64
2.04
0.00
-1.46
-2.57
-3.62
-4.90
-6.49
-8.27
-9.92
-11.09
-11.58
-11.35
-10.56
-9.43
-8.08
-6.60
-5.14
-4.01
-3.59
-4.18
-5.67
-7.48
-8.81
-8.98
-7.89
-6.05
-4.29
-3.35
-3.41
-4.17
-5.05
-5.67
-6.01
-6.39
-7.14
-8.34
-9.69
-10.71
-10.95
-10.20
-8.60
-6.53
-4.46
-2.82
-1.83
-1.49
-1.67
-2.16
-2.82
-3.62
-4.56
-5.57
-6.47
-7.02
-7.05
-6.61
-5.95
-5.42
-5.22
-5.33
-5.49
-5.40
-4.93
-4.19
-3.46
-3.05
-3.11
-3.61
-4.42
-5.36
-6.34
-7.32
-8.26
-9.10
-9.75
-10.11
-10.12
-9.80
-9.20
-8.33
-7.18
-5.64
-3.56
-0.83
2.63
6.77
11.49
16.58
21.79
26.78
31.13
34.40
36.21
36.39
34.99
32.26
28.59
24.34
19.88
15.52
11.56
8.24
5.67
3.84
2.62
1.84
1.40
1.28
1.50
2.00
2.63
3.14
3.36
3.29
3.05
2.79
2.56
2.27
1.79
1.11
0.38
-0.15
-0.32
-0.28
-0.43
-1.31
-3.27
-6.28
-9.88
-13.41
-16.29
-18.17
-18.89
-18.41
-16.72
-13.92
-10.34
-6.58
-3.32
-1.08
-0.01
0.20
0.10
0.19
0.74
1.70
2.86
3.93
4.60
4.64
3.94
2.64
1.20
0.23
0.23
1.23
2.75
4.01
4.45
3.96
3.00
2.27
2.21
2.82
3.61
3.91
3.28
1.64
-0.79
-3.61
-6.46
-9.12
-11.45
-13.35
-14.77
-15.71
-16.26
-16.58
-16.87
-17.22
-17.56
-17.65
-17.29
-16.43
-15.40
-14.76
-15.03
-16.45
-18.67
-21.00
-22.65
-23.19
-22.79
-22.16
-22.37
-24.33
-28.33
-33.70
-38.68
-40.85
-37.88
-28.52
-13.32
5.14
23.12
37.04
44.80
46.44
43.73
39.15
34.63
30.97
27.95
25.06
22.08
19.42
17.73
17.40
18.22
19.27
19.51
18.25
15.60
12.35
9.57
8.12
8.17
9.26
10.51
11.06
10.50
8.93
6.82
4.81
3.34
2.53
2.23
2.10
1.84
1.28
0.42
-0.59
-1.57
-2.33
-2.80
-3.06
-3.26
-3.60
-4.20
-4.97
-5.71
-6.15
-6.10
-5.58
-4.73
-3.78
-2.94
-2.30
-1.88
-1.62
-1.47
-1.43
-1.50
-1.69
-1.99
-2.19
-1.88
-0.51
2.34
6.73
12.16
17.66
22.12
24.56
24.47
21.83
16.99
10.47
2.84
-5.31
-13.42
-20.87
-27.09
-31.59
-33.94
-33.85
-31.28
-26.55
-20.51
-14.51
-9.96
-8.09
-9.54
-14.29
-21.56
-29.74
-36.63
-39.90
-37.89
-30.34
-18.77
-6.02
4.82
11.61
13.87
12.64
9.60
6.12
2.75
-0.63
-4.20
-7.84
-11.06
-13.43
-14.96
-16.28
-18.24
-21.48
-26.18
-31.80
-37.49
-42.44
-46.27
-49.13
-51.63
-54.47
-58.16
-62.85
-68.24
-73.87
-79.29
-84.06
-87.93
-90.82
-92.84
-94.34
-95.72
-97.02
-97.53
-95.49
-88.34
-73.36
-48.74
-14.46
27.24
72.21
115.43
152.36
180.17
198.31
208.15
212.33
213.67
214.57
216.57
220.08
224.09
226.01
221.90
207.53
180.19
140.26
91.77
41.51
-3.33
-37.59
-59.58
-70.91
-75.00
-75.22
-73.80
-71.63
-69.01
-66.32
-64.18
-63.20
-63.59
-64.93
-66.26
-66.38
-64.20
-59.04
-50.88
-40.49
-29.29
-19.02
-11.17
-6.48
-4.77
-5.11
-6.32
-7.47
-8.11
-8.15
-7.55
-6.15
-3.70
-0.10
4.36
9.00
12.95
15.55
16.40
15.67
13.91
11.85
10.17
9.27
9.20
9.65
10.12
10.17
9.56
8.41
7.08
6.06
5.72
6.17
7.25
8.58
9.71
10.29
10.25
9.76
9.28
9.32
10.28
12.27
15.04
18.11
20.99
23.48
25.84
28.70
32.75
38.34
45.25
52.65
59.40
64.55
67.69
69.06
69.49
69.92
71.21
73.97
78.41
84.10
89.61
92.40
89.40
78.17
58.35
32.38
5.03
-18.32
-33.73
-40.09
-39.05
-33.70
-26.83
-19.80
-12.71
-5.30
2.07
8.21
11.67
11.69
8.62
3.58
-2.37
-8.90
-16.56
-26.13
-37.73
-50.37
-62.07
-70.71
-74.96
-74.71
-71.01
-65.45
-59.54
-54.31
-50.21
-47.28
-45.26
-43.72
-42.05
-39.63
-36.04
-31.30
-25.84
-20.38
-15.71
-12.46
-10.91
-10.90
-11.91
-13.11
-13.61
-12.74
-10.34
-6.94
-3.65
-1.78
-2.28
-5.24
-9.75
-14.28
-17.32
-18.04
-16.58
-13.81
-10.82
-8.38
-6.71
-5.63
-4.89
-4.40
-4.23
-4.39
-4.67
-4.63
-3.85
-2.15
0.22
2.74
4.82
6.04
6.23
5.46
3.99
2.12
0.18
-1.57
-2.92
-3.80
-4.24
-4.36
-4.30
-4.17
-4.07
-4.04
-4.10
-4.24
-4.42
-4.55
-4.55
-4.32
-3.80
-2.94
-1.73
-0.23
1.45
3.13
4.62
5.74
6.43
6.70
6.63
6.34
5.94
5.49
5.01
4.49
3.84
2.96
1.76
0.22
-1.64
-3.69
-5.72
-7.48
-8.78
-9.49
-9.60
-9.20
-8.49
-7.63
-6.76
-5.96
-5.27
-4.69
-4.21
-3.87
-3.68
-3.67
-3.80
-3.97
-4.03
-3.89
-3.58
-3.26
-3.18
-3.53
-4.37
-5.58
-6.93
-8.23
-9.40
-10.40
-11.22
-11.78
-11.94
-11.59
-10.75
-9.62
-8.49
-7.62
-7.14
-7.03
-7.14
-7.34
-7.51
-7.59
-7.51
-7.24
-6.76
-6.04
-5.09
-3.90
-2.45
-0.65
1.58
4.36
7.76
11.76
16.20
20.82
25.28
29.23
32.40
34.54
35.55
35.33
33.91
31.41
28.06
24.18
20.07
15.97
12.04
8.46
5.48
3.34
2.20
1.92
2.07
2.13
1.73
0.84
-0.24
-1.12
-1.64
-1.98
-2.47
-3.39
-4.67
-5.90
-6.55
-6.30
-5.24
-3.71
-2.12
-0.76
0.26
0.87
0.87
0.11
-1.38
-3.19
-4.67
-5.28
-4.97
-4.28
-4.03
-4.73
-6.13
-7.21
-6.80
-4.33
-0.35
3.69
6.09
5.86
3.10
-1.14
-5.51
-9.01
-11.44
-13.18
-14.75
-16.45
-18.10
-19.22
-19.32
-18.13
-15.75
-12.51
-8.93
-5.57
-2.91
-1.30
-0.84
-1.40
-2.61
-4.06
-5.38
-6.31
-6.66
-6.28
-5.10
-3.20
-0.87
1.34
2.86
3.33
2.79
1.72
0.84
0.70
1.48
2.84
4.14
4.75
4.39
3.17
1.54
-0.03
-1.23
-2.04
-2.60
-3.08
-3.48
-3.68
-3.52
-2.97
-2.15
-1.34
-0.76
-0.45
-0.27
0.03
0.66
1.65
2.85
3.96
4.70
4.91
4.62
4.06
3.52
3.28
3.46
4.07
4.94
5.88
6.68
7.23
7.50
7.52
7.36
7.11
6.86
6.64
6.45
6.23
5.91
5.43
4.79
4.05
3.32
2.68
2.20
1.92
1.89
2.08
2.41
2.74
2.86
2.63
1.99
0.99
-0.21
-1.47
-2.71
-3.88
-5.00
-6.01
-6.86
-7.50
-7.96
-8.35
-8.83
-9.58
-10.68
-12.08
-13.59
-14.96
-15.95
-16.48
-16.62
-16.57
-16.53
-16.60
-16.70
-16.66
-16.25
-15.27
-13.54
-10.94
-7.37
-2.87
2.28
7.51
12.07
15.16
16.30
15.45
13.10
9.97
6.84
4.24
2.38
1.24
0.73
0.77
1.33
2.38
3.78
5.26
6.46
7.11
7.12
6.68
6.10
5.71
5.66
5.84
5.93
5.56
4.49
2.79
0.78
-1.03
-2.18
-2.50
-2.19
-1.80
-1.92
-2.96
-4.93
-7.36
-9.48
-10.51
-9.91
-7.56
-3.80
0.61
4.64
7.16
7.12
3.87
-2.62
-11.66
-21.97
-32.09
-40.81
-47.58
-52.52
-56.29
-59.74
-63.67
-68.54
-74.39
-80.97
-87.83
-94.49
-100.71
-106.49
-111.86
-116.60
-120.10
-121.49
-119.91
-114.69
-105.55
-92.54
-76.27
-58.00
-39.88
-24.74
-15.64
-15.07
-23.98
-41.12
-62.82
-83.54
-96.91
-97.26
-81.16
-48.61
-3.48
47.36
95.77
134.85
160.75
173.35
175.43
171.17
164.48
157.95
152.68
148.68
145.46
142.44
139.28
135.82
132.02
127.94
123.70
119.39
115.06
110.80
106.75
103.20
100.44
98.65
97.72
97.38
97.44
97.94
98.84
99.40
97.64
90.63
75.70
52.04
21.81
-10.20
-38.25
-57.95
-67.85
-69.55
-66.43
-61.75
-57.36
-53.58
-49.96
-46.23
-42.69
-39.96
-38.36
-37.56
-36.72
-34.91
-31.65
-27.18
-22.39
-18.34
-15.74
-14.67
-14.59
-14.72
-14.51
-13.91
-13.39
-13.66
-15.23
-18.18
-22.04
-26.01
-29.18
-30.81
-30.49
-28.28
-24.60
-20.13
-15.62
-11.66
-8.59
-6.49
-5.25
-4.67
-4.62
-4.96
-5.61
-6.44
-7.31
-8.08
-8.68
-9.07
-9.25
-9.21
-8.98
-8.59
-8.16
-7.84
-7.77
-8.00
-8.41
-8.76
-8.75
-8.15
-6.97
-5.48
-4.09
-3.20
-3.00
-3.35
-3.92
-4.31
-4.32
-4.01
-3.58
-3.21
-2.91
-2.49
-1.72
-0.37
1.66
4.49
8.22
12.90
18.41
24.36
30.09
34.93
38.39
40.36
41.05
40.82
39.94
38.55
36.82
35.05
33.74
33.43
34.43
36.57
39.23
41.66
43.35
44.36
45.30
47.14
50.65
56.05
62.85
69.98
76.32
81.17
84.52
87.13
90.22
95.08
102.65
113.05
125.40
137.55
146.25
147.67
138.50
117.23
85.19
46.65
7.58
-26.35
-51.78
-68.43
-78.58
-85.39
-91.27
-97.12
-102.52
-106.69
-109.18
-110.05
-109.48
-107.35
-103.21
-96.65
-87.87
-77.89
-68.27
-60.50
-55.42
-52.94
-52.16
-51.80
-50.61
-47.95
-43.93
-39.44
-35.67
-33.57
-33.42
-34.71
-36.37
-37.25
-36.64
-34.38
-30.81
-26.52
-22.08
-17.95
-14.47
-11.92
-10.50
-10.27
-11.03
-12.38
-13.74
-14.62
-14.74
-14.07
-12.81
-11.26
-9.64
-8.09
-6.64
-5.34
-4.24
-3.42
-2.93
-2.71
-2.59
-2.38
-1.95
-1.23
-0.26
0.93
2.29
3.78
5.24
6.39
6.90
6.51
5.16
3.12
0.80
-1.34
-3.03
-4.19
-4.91
-5.33
-5.52
-5.44
-5.03
-4.28
-3.30
-2.29
-1.48
-1.02
-0.93
-1.14
-1.52
-1.94
-2.35
-2.70
-2.96
-3.10
-3.04
-2.76
-2.27
-1.64
-0.98
-0.42
-0.03
0.16
0.21
0.21
0.24
0.33
0.49
0.72
1.00
1.33
1.66
1.95
2.10
2.11
1.97
1.74
1.48
1.21
0.94
0.64
0.31
-0.01
-0.26
-0.39
-0.43
-0.44
-0.47
-0.55
-0.66
-0.72
-0.72
-0.66
-0.62
-0.63
-0.69
-0.77
-0.81
-0.77
-0.69
-0.63
-0.65
-0.76
-0.89
-0.97
-0.92
-0.78
-0.62
-0.58
-0.77
-1.19
-1.74
-2.27
-2.60
-2.67
-2.50
-2.21
-1.93
-1.75
-1.63
-1.51
-1.32
-1.06
-0.86
-0.85
-1.11
-1.57
-2.08
-2.46
-2.64
-2.71
-2.83
-3.15
-3.60
-3.96
-3.99
-3.57
-2.79
-1.90
-1.14
-0.62
-0.24
0.17
0.73
1.39
1.98
2.32
2.35
2.18
2.01
2.01
2.23
2.58
2.89
3.01
2.86
2.48
2.00
1.61
1.45
1.62
2.04
2.55
2.94
3.06
2.87
2.45
1.94
1.47
1.09
0.80
0.53
0.28
0.06
-0.06
-0.03
0.12
0.33
0.50
0.53
0.39
0.12
-0.15
-0.30
-0.23
0.05
0.41
0.72
0.84
0.77
0.58
0.41
0.36
0.46
0.64
0.81
0.91
0.97
1.01
1.07
1.12
1.10
0.99
0.85
0.76
0.83
1.05
1.32
1.48
1.40
1.09
0.66
0.31
0.13
0.13
0.17
0.11
-0.10
-0.42
-0.69
-0.80
-0.70
-0.46
-0.20
0.01
0.14
0.25
0.39
0.57
0.74
0.83
0.79
0.63
0.44
0.30
0.25
0.26
0.24
0.13
-0.10
-0.35
-0.49
-0.41
-0.11
0.32
0.73
1.00
1.10
1.10
1.10
1.16
1.26
1.34
1.36
1.33
1.34
1.47
1.73
2.02
2.23
2.25
2.12
1.95
1.91
2.11
2.53
3.07
3.56
3.85
3.89
3.73
3.47
3.22
3.09
3.08
3.16
3.18
3.01
2.52
1.71
0.68
-0.36
-1.20
-1.78
-2.25
-2.87
-3.90
-5.45
-7.32
-9.09
-10.37
-10.91
-10.78
-10.22
-9.45
-8.55
-7.39
-5.81
-3.80
-1.50
0.80
2.89
4.71
6.32
7.82
9.18
10.19
10.61
10.27
9.23
7.74
6.14
4.71
3.54
2.57
1.60
0.48
-0.87
-2.38
-3.89
-5.17
-6.01
-6.32
-6.15
-5.65
-5.04
-4.52
-4.13
-3.78
-3.31
-2.61
-1.73
-0.90
-0.40
-0.41
-0.87
-1.51
-2.02
-2.18
-1.99
-1.63
-1.28
-1.07
-0.97
-0.88
-0.72
-0.49
-0.26
-0.11
-0.04
-0.02
0.01
0.12
0.31
0.54
0.77
0.96
1.09
1.13
1.07
0.91
0.66
0.35
0.03
-0.26
-0.52
-0.74
-0.94
-1.13
-1.33
-1.52
-1.71
-1.86
-1.93
-1.84
-1.56
-1.12
-0.60
-0.13
0.18
0.30
0.28
0.20
0.14
0.08
0.01
-0.10
-0.23
-0.32
-0.31
-0.18
0.03
0.27
0.51
0.74
0.97
1.19
1.35
1.39
1.30
1.09
0.84
0.60
0.41
0.26
0.10
-0.08
-0.25
-0.36
-0.36
-0.26
-0.15
-0.11
-0.19
-0.40
-0.69
-0.95
-1.09
-1.05
-0.79
-0.32
0.30
0.94
1.40
1.43
0.84
-0.41
-2.13
-3.96
-5.51
-6.50
-6.85
-6.65
-6.12
-5.43
-4.67
-3.84
-2.93
-1.94
-0.93
0.01
0.86
1.62
2.36
3.12
3.89
4.61
5.18
5.49
5.53
5.31
4.91
4.44
3.98
3.59
3.26
2.94
2.55
2.02
1.35
0.58
-0.17
-0.80
-1.26
-1.55
-1.75
-1.91
-2.06
-2.16
-2.18
-2.07
-1.86
-1.61
-1.35
-1.12
-0.91
-0.73
-0.57
-0.42
-0.29
-0.15
0.02
0.22
0.43
0.58
0.58
0.36
-0.08
-0.65
-1.22
-1.60
-1.70
-1.53
-1.23
-0.99
-0.97
-1.20
-1.56
-1.91
-2.10
-2.15
-2.15
-2.20
-2.35
-2.55
-2.66
-2.56
-2.23
-1.73
-1.21
-0.75
-0.35
0.06
0.50
0.81
0.74
0.12
-0.82
-1.43
-0.87
1.37
5.02
9.03
12.01
12.95
11.70
9.06
6.21
4.08
2.92
2.33
1.77
0.97
0.10
-0.43
-0.32
0.38
1.30
2.02
2.21
1.88
1.27
0.69
0.41
0.47
0.80
1.17
1.39
1.32
0.96
0.42
-0.12
-0.48
-0.59
-0.44
-0.18
0.05
0.09
-0.14
-0.62
-1.24
-1.85
-2.34
-2.64
-2.78
-2.82
-2.82
-2.80
-2.73
-2.56
-2.26
-1.89
-1.51
-1.24
-1.14
-1.20
-1.36
-1.53
-1.68
-1.79
-1.90
-2.05
-2.25
-2.50
-2.78
-3.07
-3.35
-3.56
-3.63
-3.55
-3.34
-3.15
-3.17
-3.56
-4.36
-5.40
-6.38
-7.07
-7.41
-7.63
-8.09
-9.05
-10.55
-12.27
-13.76
-14.61
-14.71
-14.30
-13.80
-13.67
-14.22
-15.57
-17.68
-20.41
-23.54
-26.73
-29.46
-31.15
-31.28
-29.64
-26.48
-22.51
-18.74
-16.14
-15.43
-16.92
-20.51
-25.79
-32.11
-38.73
-44.92
-50.12
-54.15
-57.40
-60.61
-64.71
-70.35
-77.63
-86.08
-94.93
-103.49
-111.23
-117.72
-122.60
-125.67
-127.22
-128.07
-129.14
-130.50
-130.59
-126.05
-112.85
-88.09
-51.74
-7.19
39.79
83.03
118.02
142.88
158.20
165.79
167.65
165.33
160.08
153.16
146.03
140.14
136.47
135.11
135.12
134.91
132.94
128.41
121.67
114.09
107.56
103.59
102.67
104.01
105.97
106.81
105.50
102.17
97.97
94.52
93.21
94.75
98.87
104.32
108.77
109.07
101.73
84.08
55.47
18.19
-22.81
-61.30
-92.02
-112.31
-122.56
-125.20
-122.92
-117.42
-109.19
-98.28
-85.36
-72.09
-60.64
-52.58
-48.11
-45.94
-44.09
-40.91
-35.89
-29.67
-23.50
-18.37
-14.55
-11.56
-8.56
-4.99
-0.85
3.25
6.45
8.13
8.19
7.02
5.27
3.54
2.13
1.12
0.39
-0.16
-0.59
-0.84
-0.89
-0.70
-0.33
0.15
0.60
0.92
1.03
0.93
0.65
0.28
-0.09
-0.43
-0.75
-1.09
-1.51
-2.04
-2.61
-3.10
-3.39
-3.37
-3.05
-2.53
-1.97
-1.53
-1.26
-1.07
-0.73
-0.03
1.12
2.64
4.27
5.70
6.75
7.42
8.04
9.12
11.18
14.61
19.49
25.51
32.02
38.24
43.53
47.47
50.11
51.82
53.11
54.49
56.36
58.89
61.83
64.29
64.76
61.62
53.88
41.88
27.43
13.14
1.35
-6.85
-11.83
-14.89
-17.23
-19.23
-20.34
-19.63
-16.54
-11.35
-4.98
1.44
7.17
12.07
16.43
20.67
25.22
30.19
35.53
41.20
47.31
53.99
61.15
68.17
73.73
76.13
73.91
66.55
54.83
40.49
25.40
10.80
-3.22
-17.33
-32.16
-47.55
-62.24
-74.38
-82.37
-85.65
-84.89
-81.53
-77.06
-72.40
-67.73
-62.70
-57.01
-50.76
-44.43
-38.76
-34.34
-31.41
-29.75
-28.87
-28.30
-27.73
-27.15
-26.73
-26.60
-26.67
-26.62
-26.05
-24.79
-23.00
-21.11
-19.58
-18.56
-17.84
-16.97
-15.63
-13.85
-12.02
-10.71
-10.30
-10.82
-11.91
-13.07
-13.82
-13.91
-13.33
-12.22
-10.82
-9.36
-8.04
-6.98
-6.24
-5.77
-5.43
-5.04
-4.35
-3.22
-1.58
0.49
2.78
4.98
6.83
8.12
8.78
8.83
8.39
7.58
6.50
5.20
3.76
2.22
0.68
-0.79
-2.12
-3.29
-4.28
-5.07
-5.64
-5.93
-5.93
-5.69
-5.28
-4.83
-4.42
-4.10
-3.89
-3.76
-3.65
-3.48
-3.16
-2.66
-1.99
-1.25
-0.52
0.11
0.63
1.07
1.42
1.62
1.61
1.32
0.78
0.11
-0.51
-0.94
-1.13
-1.09
-0.94
-0.76
-0.62
-0.52
-0.42
-0.27
-0.05
0.23
0.48
0.65
0.67
0.57
0.41
0.29
0.29
0.41
0.58
0.74
0.82
0.83
0.78
0.72
0.68
0.64
0.55
0.40
0.18
-0.06
-0.26
-0.37
-0.42
-0.44
-0.51
-0.66
-0.87
-1.06
-1.15
-1.05
-0.73
-0.21
0.42
1.08
1.64
1.97
1.97
1.54
0.74
-0.27
-1.25
-1.95
-2.25
-2.18
-1.96
-1.83
-1.97
-2.39
-2.93
-3.36
-3.50
-3.33
-2.96
-2.61
-2.42
-2.44
-2.56
-2.62
-2.48
-2.14
-1.68
-1.26
-0.98
-0.89
-0.96
-1.13
-1.38
-1.66
-1.95
-2.14
-2.17
-2.04
-1.81
-1.63
-1.57
-1.63
-1.68
-1.54
-1.07
-0.25
0.79
1.82
2.56
2.80
2.47
1.73
0.91
0.45
0.75
1.95
3.91
6.20
8.30
9.81
10.54
10.56
10.10
9.35
8.45
7.38
6.05
4.37
2.31
-0.05
-2.54
-4.92
-6.98
-8.54
-9.46
-9.69
-9.20
-8.02
-6.25
-4.07
-1.82
0.13
1.48
2.07
1.97
1.42
0.76
0.31
0.27
0.72
1.57
2.65
3.74
4.58
4.97
4.82
4.23
3.41
2.61
2.05
1.81
1.82
1.94
2.02
1.98
1.82
1.58
1.33
1.07
0.79
0.46
0.09
-0.24
-0.46
-0.49
-0.33
-0.04
0.28
0.53
0.62
0.52
0.16
-0.51
-1.53
-2.83
-4.24
-5.54
-6.53
-7.09
-7.26
-7.16
-6.88
-6.50
-5.96
-5.22
-4.22
-2.98
-1.55
-0.02
1.53
3.03
4.42
5.61
6.44
6.69
6.20
4.91
2.98
0.77
-1.20
-2.51
-2.95
-2.64
-1.92
-1.22
-0.85
-0.90
-1.26
-1.67
-1.94
-1.97
-1.80
-1.58
-1.46
-1.54
-1.84
-2.28
-2.79
-3.28
-3.74
-4.20
-4.68
-5.16
-5.55
-5.77
-5.80
-5.70
-5.62
-5.75
-6.18
-6.92
-7.83
-8.71
-9.30
-9.46
-9.20
-8.73
-8.36
-8.43
-9.12
-10.33
-11.77
-13.07
-14.02
-14.64
-15.17
-15.87
-16.88
-18.11
-19.37
-20.37
-20.75
-19.96
-17.32
-12.28
-4.76
4.46
13.84
21.56
26.22
27.45
26.01
23.30
20.67
18.87
17.92
17.45
17.04
16.57
16.11
15.79
15.53
15.11
14.29
12.93
11.08
8.98
6.90
5.05
3.55
2.38
1.44
0.49
-0.72
-2.47
-4.94
-8.12
-11.81
-15.62
-19.10
-21.89
-23.85
-25.18
-26.38
-27.98
-30.40
-33.67
-37.41
-40.97
-43.87
-46.11
-48.36
-51.70
-57.18
-65.45
-76.57
-90.06
-105.13
-120.44
-133.80
-142.10
-142.10
-131.84
-111.86
-85.46
-57.60
-32.87
-13.84
-0.60
8.30
14.17
17.04
15.74
8.79
-4.35
-22.71
-43.85
-64.56
-81.42
-91.11
-90.72
-78.21
-53.17
-17.45
24.89
68.35
107.22
136.90
155.00
161.52
158.51
149.14
136.73
123.94
112.45
102.93
95.40
89.50
84.72
80.46
76.09
71.19
65.59
59.49
53.38
47.85
43.36
40.07
37.75
35.92
34.08
31.85
29.19
26.33
23.73
21.79
20.74
20.45
20.53
20.46
19.85
18.53
16.61
14.36
12.07
9.99
8.27
7.03
6.28
5.96
5.89
5.86
5.69
5.39
5.21
5.50
6.52
8.22
10.21
11.92
12.91
13.10
12.94
13.14
14.45
17.20
21.19
25.67
29.65
32.37
33.59
33.79
33.99
35.37
38.73
44.13
50.87
57.73
63.53
67.62
70.17
72.18
75.10
80.50
89.48
102.08
116.82
130.51
138.59
136.09
119.19
86.83
41.62
-10.41
-61.42
-104.07
-133.66
-149.12
-152.59
-147.93
-139.06
-128.83
-118.83
-109.89
-102.54
-97.27
-94.34
-93.48
-93.65
-93.38
-91.31
-86.83
-80.35
-73.14
-66.82
-62.56
-60.49
-59.56
-57.90
-53.50
-45.18
-33.05
-18.56
-3.98
8.53
17.60
23.02
25.52
26.24
26.18
25.83
25.22
24.09
22.32
20.09
17.83
16.06
15.06
14.78
14.84
14.74
14.07
12.64
10.57
8.22
6.04
4.46
3.69
3.71
4.24
4.90
5.37
5.51
5.46
5.52
6.04
7.23
9.02
11.10
13.03
14.42
15.19
15.55
16.04
17.32
19.96
24.33
30.38
37.71
45.70
53.54
60.58
66.39
70.87
74.33
77.36
80.64
84.48
88.37
90.85
89.77
83.16
70.17
51.65
30.04
8.44
-10.50
-25.40
-36.23
-43.70
-48.54
-50.99
-50.90
-48.19
-43.25
-37.02
-30.62
-24.87
-20.03
-15.80
-11.65
-7.11
-2.12
3.09
8.13
12.82
17.28
22.00
27.38
33.26
38.61
41.79
41.17
35.94
26.51
14.34
1.29
-11.18
-22.37
-32.20
-40.79
-47.95
-53.20
-56.05
-56.42
-54.87
-52.34
-49.75
-47.65
-46.06
-44.64
-42.94
-40.60
-37.49
-33.69
-29.45
-25.07
-20.88
-17.13
-13.99
-11.53
-9.77
-8.68
-8.13
-7.88
-7.63
-7.15
-6.42
-5.75
-5.62
-6.48
-8.46
-11.20
-13.94
-15.81
-16.15
-14.77
-11.98
-8.43
-4.85
-1.89
0.06
0.84
0.50
-0.80
-2.77
-5.04
-7.18
-8.78
-9.54
-9.41
-8.62
-7.60
-6.83
-6.59
-6.88
-7.45
-8.02
-8.45
-8.78
-9.10
-9.34
-9.25
-8.47
-6.77
-4.22
-1.20
1.82
4.48
6.65
8.28
9.28
9.35
8.19
5.69
2.19
-1.58
-4.73
-6.68
-7.32
-7.08
-6.58
-6.31
-6.44
-6.75
-6.89
-6.56
-5.69
-4.41
-2.88
-1.25
0.47
2.30
4.24
6.23
8.13
9.81
11.17
12.12
12.55
12.28
11.10
8.86
5.63
1.73
-2.31
-5.81
-8.23
-9.27
-8.99
-7.73
-6.02
-4.40
-3.24
-2.70
-2.72
-3.10
-3.70
-4.44
-5.34
-6.36
-7.39
-8.20
-8.63
-8.66
-8.44
-8.20
-8.05
-7.89
-7.44
-6.42
-4.74
-2.58
-0.33
1.64
3.19
4.50
6.05
8.44
12.18
17.39
23.65
29.90
34.63
36.32
33.94
27.42
17.81
7.00
-2.82
-9.90
-13.42
-13.62
-11.59
-8.69
-6.02
-4.17
-3.20
-2.96
-3.28
-4.12
-5.46
-7.18
-8.88
-10.06
-10.31
-9.58
-8.22
-6.85
-6.01
-5.95
-6.51
-7.33
-7.98
-8.25
-8.21
-8.08
-8.10
-8.33
-8.63
-8.75
-8.52
-7.98
-7.43
-7.19
-7.42
-7.99
-8.55
-8.78
-8.58
-8.13
-7.62
-7.11
-6.38
-5.12
-3.20
-0.80
1.59
3.58
5.17
6.78
8.94
11.83
14.98
17.36
17.91
16.14
12.37
7.65
3.24
0.08
-1.50
-1.75
-1.18
-0.30
0.54
1.14
1.37
1.12
0.34
-0.90
-2.39
-3.81
-4.92
-5.60
-5.90
-5.98
-5.98
-5.97
-6.01
-6.12
-6.33
-6.64
-7.02
-7.37
-7.60
-7.66
-7.61
-7.54
-7.58
-7.78
-8.08
-8.34
-8.43
-8.31
-8.00
-7.57
-7.07
-6.47
-5.67
-4.64
-3.38
-1.95
-0.42
1.17
2.84
4.59
6.41
8.20
9.82
11.20
12.43
13.72
15.33
17.38
19.78
22.15
23.99
24.81
24.35
22.73
20.35
17.73
15.34
13.37
11.81
10.52
9.40
8.42
7.60
6.91
6.22
5.34
4.17
2.75
1.33
0.21
-0.39
-0.45
-0.15
0.25
0.55
0.67
0.67
0.64
0.60
0.47
0.13
-0.53
-1.46
-2.47
-3.27
-3.63
-3.47
-2.86
-1.97
-0.96
0.13
1.29
2.53
3.79
4.83
5.40
5.29
4.44
3.03
1.43
0.07
-0.73
-0.86
-0.49
0.01
0.19
-0.25
-1.37
-3.00
-4.80
-6.40
-7.54
-8.11
-8.16
-7.84
-7.33
-6.77
-6.29
-5.95
-5.72
-5.53
-5.30
-4.97
-4.54
-4.05
-3.55
-3.04
-2.44
-1.71
-0.83
0.08
0.87
1.37
1.52
1.40
1.13
0.80
0.39
-0.21
-1.13
-2.36
-3.73
-4.97
-5.83
-6.22
-6.25
-6.19
-6.28
-6.64
-7.16
-7.69
-8.14
-8.60
-9.28
-10.32
-11.60
-12.72
-13.19
-12.68
-11.22
-9.19
-7.00
-4.86
-2.69
-0.22
2.69
5.85
8.79
10.98
12.08
12.15
11.51
10.55
9.55
8.59
7.63
6.66
5.69
4.80
4.06
3.49
3.09
2.81
2.68
2.67
2.68
2.62
2.41
2.07
1.71
1.50
1.51
1.72
2.02
2.27
2.40
2.43
2.42
2.37
2.23
1.92
1.45
0.95
0.61
0.57
0.80
1.13
1.32
1.24
0.90
0.45
0.12
0.04
0.23
0.56
0.84
0.91
0.72
0.35
-0.06
-0.34
-0.37
-0.10
0.43
1.11
1.79
2.36
2.72
2.88
2.89
2.90
3.07
3.58
4.64
6.44
9.09
12.50
16.15
19.15
20.41
19.14
15.24
9.40
2.90
-2.93
-7.20
-9.64
-10.52
-10.27
-9.26
-7.71
-5.77
-3.63
-1.58
0.11
1.22
1.65
1.28
0.05
-1.99
-4.54
-7.09
-9.08
-10.18
-10.53
-10.66
-11.21
-12.53
-14.45
-16.37
-17.61
-17.82
-17.18
-16.24
-15.46
-14.91
-14.27
-13.08
-11.27
-9.29
-7.76
-6.91
-6.13
-4.26
-0.43
5.07
10.51
13.51
12.30
6.89
-0.79
-7.83
-11.82
-11.91
-8.99
-4.75
-0.57
3.19
7.09
11.85
17.56
23.39
27.99
30.16
29.53
26.69
22.90
19.42
16.96
15.40
14.03
12.02
8.90
4.80
0.34
-3.76
-7.02
-9.42
-11.27
-13.04
-15.00
-17.12
-19.09
-20.54
-21.26
-21.29
-20.85
-20.27
-19.76
-19.45
-19.29
-19.22
-19.10
-18.85
-18.40
-17.72
-16.88
-15.99
-15.20
-14.59
-14.24
-14.16
-14.39
-14.90
-15.56
-15.95
-15.38
-12.99
-8.04
-0.23
10.01
21.63
33.15
43.13
50.55
55.01
56.66
56.01
53.59
49.79
44.81
38.80
32.03
24.98
18.29
12.54
8.08
4.91
2.76
1.27
0.24
-0.36
-0.44
-0.04
0.58
0.98
0.69
-0.56
-2.68
-5.31
-7.98
-10.26
-11.93
-12.94
-13.37
-13.32
-12.92
-12.27
-11.42
-10.39
-9.16
-7.73
-6.17
-4.65
-3.42
-2.67
-2.44
-2.61
-2.92
-3.15
-3.18
-3.02
-2.76
-2.50
-2.26
-2.00
-1.69
-1.37
-1.14
-1.09
-1.26
-1.56
-1.84
-1.93
-1.78
-1.43
-1.04
-0.73
-0.57
-0.50
-0.43
-0.27
-0.01
0.33
0.66
0.94
1.14
1.26
1.28
1.16
0.89
0.46
-0.07
-0.58
-0.98
-1.20
-1.27
-1.24
-1.18
-1.15
-1.17
-1.18
-1.16
-1.04
-0.82
-0.53
-0.24
-0.05
-0.01
-0.09
-0.24
-0.36
-0.37
-0.29
-0.17
-0.08
-0.08
-0.16
-0.29
-0.40
-0.48
-0.51
-0.47
-0.35
-0.13
0.15
0.43
0.63
0.69
0.63
0.52
0.45
0.49
0.64
0.85
1.06
1.22
1.32
1.39
1.42
1.34
1.11
0.71
0.20
-0.29
-0.62
-0.73
-0.70
-0.65
-0.74
-1.02
-1.42
-1.81
-2.02
-2.01
-1.78
-1.45
-1.12
-0.88
-0.76
-0.73
-0.75
-0.75
-0.68
-0.51
-0.24
0.12
0.51
0.84
1.01
0.95
0.65
0.16
-0.37
-0.78
-0.93
-0.75
-0.30
0.30
0.91
1.44
1.83
2.04
2.05
1.82
1.37
0.78
0.24
-0.06
0.03
0.47
1.09
1.63
1.84
1.61
0.97
0.05
-0.99
-2.02
-2.96
-3.71
-4.21
-4.38
-4.23
-3.80
-3.25
-2.73
-2.37
-2.25
-2.28
-2.32
-2.18
-1.76
-1.07
-0.25
0.50
1.02
1.29
1.40
1.49
1.64
1.82
1.90
1.78
1.48
1.12
0.89
0.88
1.04
1.16
1.01
0.46
-0.42
-1.39
-2.19
-2.62
-2.67
-2.45
-2.19
-2.04
-2.08
-2.24
-2.39
-2.44
-2.39
-2.35
-2.43
-2.68
-3.05
-3.42
-3.66
-3.75
-3.72
-3.66
-3.61
-3.57
-3.51
-3.40
-3.23
-3.05
-2.94
-3.03
-3.40
-4.09
-5.00
-5.91
-6.58
-6.84
-6.71
-6.40
-6.11
-5.90
-5.61
-4.91
-3.56
-1.53
0.89
3.24
5.13
6.37
7.00
7.22
7.23
7.20
7.25
7.49
8.03
8.91
10.09
11.40
12.61
13.47
13.78
13.45
12.49
10.99
9.13
7.07
5.02
3.16
1.68
0.70
0.27
0.41
1.01
1.93
3.04
4.22
5.40
6.60
7.83
9.09
10.30
11.35
12.09
12.37
12.08
11.18
9.72
7.82
5.67
3.47
1.36
-0.51
-2.05
-3.17
-3.84
-4.10
-4.08
-4.00
-4.09
-4.47
-5.13
-5.95
-6.81
-7.62
-8.38
-9.12
-9.82
-10.35
-10.59
-10.47
-10.07
-9.61
-9.30
-9.27
-9.51
-9.86
-10.14
-10.22
-10.12
-9.93
-9.76
-9.64
-9.48
-9.11
-8.30
-6.89
-4.82
-2.17
0.90
4.12
7.19
9.74
11.43
12.00
11.39
9.84
7.83
5.93
4.62
4.10
4.23
4.69
5.14
5.37
5.38
5.27
5.15
5.00
4.77
4.42
4.02
3.69
3.56
3.63
3.82
3.96
3.88
3.50
2.75
1.63
0.12
-1.70
-3.64
-5.42
-6.72
-7.32
-7.21
-6.57
-5.67
-4.76
-3.95
-3.31
-2.84
-2.55
-2.41
-2.32
-2.12
-1.70
-1.09
-0.46
-0.10
-0.19
-0.68
-1.29
-1.69
-1.68
-1.34
-0.93
-0.74
-0.85
-1.08
-1.11
-0.70
0.13
1.13
1.93
2.32
2.27
1.98
1.72
1.65
1.77
1.94
1.98
1.80
1.39
0.85
0.32
-0.09
-0.37
-0.55
-0.74
-0.99
-1.33
-1.70
-1.97
-2.05
-1.90
-1.55
-1.11
-0.67
-0.32
-0.11
-0.07
-0.20
-0.50
-0.87
-1.19
-1.32
-1.20
-0.92
-0.62
-0.49
-0.61
-0.91
-1.18
-1.23
-0.97
-0.47
0.02
0.27
0.11
-0.43
-1.16
-1.82
-2.16
-2.10
-1.71
-1.14
-0.59
-0.13
0.27
0.72
1.34
2.22
3.47
5.28
7.84
11.19
15.01
18.53
20.79
20.99
18.95
15.22
10.83
6.79
3.62
1.26
-0.76
-2.87
-5.18
-7.36
-8.94
-9.57
-9.27
-8.43
-7.59
-7.20
-7.41
-8.02
-8.60
-8.72
-8.17
-7.06
-5.81
-4.91
-4.67
-5.08
-5.81
-6.37
-6.37
-5.71
-4.64
-3.63
-3.15
-3.46
-4.43
-5.70
-6.84
-7.62
-8.08
-8.33
-8.32
-7.75
-6.22
-3.58
-0.18
3.12
5.37
6.08
5.44
4.24
3.37
3.29
3.81
4.31
4.26
3.55
2.56
1.87
1.86
2.49
3.36
3.97
4.02
3.54
2.80
2.17
1.89
1.98
2.27
2.51
2.51
2.24
1.82
1.44
1.23
1.20
1.26
1.23
1.00
0.54
-0.06
-0.65
-1.10
-1.41
-1.67
-2.01
-2.53
-3.20
-3.90
-4.46
-4.78
-4.87
-4.84
-4.83
-4.92
-5.10
-5.26
-5.32
-5.25
-5.10
-4.94
-4.80
-4.72
-4.69
-4.77
-5.02
-5.51
-6.20
-6.98
-7.66
-8.07
-8.18
-8.08
-7.96
-8.02
-8.33
-8.85
-9.41
-9.81
-9.98
-9.96
-9.95
-10.21
-10.93
-12.10
-13.53
-14.89
-15.89
-16.49
-16.88
-17.49
-18.70
-20.62
-22.97
-25.11
-26.30
-26.16
-24.85
-23.11
-22.02
-22.47
-24.89
-29.25
-35.19
-42.14
-49.07
-54.19
-55.03
-49.19
-35.52
-15.21
8.17
29.81
45.62
53.80
55.33
53.07
50.01
47.88
46.75
45.69
43.87
41.24
38.49
36.37
35.16
34.40
33.26
30.96
27.27
22.66
18.02
14.25
11.88
10.90
10.79
10.87
10.52
9.45
7.79
5.94
4.43
3.72
4.04
5.32
7.28
9.58
11.90
14.09
16.12
18.01
19.76
21.30
22.56
23.50
24.13
24.52
24.81
25.12
25.58
26.34
27.51
29.14
31.18
33.40
35.53
37.32
38.72
39.96
41.53
43.99
47.73
52.68
58.30
63.70
68.02
70.85
72.40
73.47
75.07
77.93
82.05
86.59
90.02
90.68
87.45
80.33
70.66
60.85
53.86
52.33
57.70
69.42
84.64
98.60
105.59
100.50
80.38
45.60
0.03
-49.79
-96.37
-133.29
-156.86
-166.69
-165.20
-156.28
-143.80
-130.70
-118.73
-108.72
-100.97
-95.43
-91.65
-88.79
-85.69
-81.39
-75.62
-68.91
-62.25
-56.74
-53.01
-51.04
-50.18
-49.44
-47.62
-43.79
-37.61
-29.77
-22.06
-16.96
-16.57
-21.39
-29.54
-37.19
-40.02
-35.29
-23.23
-7.12
8.26
18.73
22.48
20.44
15.36
10.09
6.25
3.77
1.70
-0.80
-3.68
-6.04
-6.75
-5.25
-1.93
2.05
5.28
6.68
6.04
3.93
1.40
-0.53
-1.36
-1.25
-0.84
-0.84
-1.58
-2.85
-4.09
-4.71
-4.41
-3.34
-1.99
-0.91
-0.47
-0.75
-1.54
-2.47
-3.13
-3.29
-2.89
-2.10
-1.24
-0.60
-0.31
-0.28
-0.26
0.04
0.74
1.75
2.80
3.57
3.86
3.65
3.08
2.38
1.76
1.35
1.19
1.20
1.29
1.36
1.34
1.22
1.06
0.93
0.89
0.98
1.20
1.51
1.87
2.21
2.44
2.47
2.28
1.90
1.43
1.00
0.69
0.55
0.53
0.60
0.68
0.73
0.66
0.43
0.02
-0.53
-1.08
-1.46
-1.54
-1.30
-0.83
-0.30
0.11
0.30
0.21
-0.12
-0.58
-1.03
-1.33
-1.34
-1.03
-0.50
0.11
0.61
0.87
0.90
0.78
0.59
0.40
0.22
0.01
-0.22
-0.45
-0.60
-0.66
-0.66
-0.69
-0.85
-1.17
-1.60
-2.00
-2.27
-2.31
-2.17
-1.95
-1.80
-1.81
-2.02
-2.37
-2.78
-3.18
-3.57
-3.97
-4.47
-5.06
-5.72
-6.28
-6.55
-6.37
-5.67
-4.58
-3.32
-2.13
-1.15
-0.39
0.25
0.89
1.61
2.37
3.10
3.75
4.36
4.99
5.72
6.54
7.36
8.02
8.37
8.32
7.91
7.23
6.46
5.74
5.12
4.63
4.22
3.84
3.47
3.08
2.65
2.17
1.66
1.21
0.97
1.09
1.61
2.39
3.09
3.31
2.81
1.61
-0.02
-1.64
-2.90
-3.65
-3.94
-3.96
-3.85
-3.61
-3.11
-2.19
-0.79
0.99
2.93
4.82
6.50
7.90
8.98
9.67
9.81
9.25
7.97
6.10
3.90
1.63
-0.60
-2.82
-5.10
-7.39
-9.45
-10.96
-11.74
-11.92
-11.87
-12.00
-12.46
-13.00
-13.15
-12.43
-10.72
-8.32
-5.81
-3.78
-2.51
-1.97
-1.82
-1.73
-1.49
-1.11
-0.70
-0.38
-0.18
-0.03
0.18
0.53
1.04
1.59
2.06
2.35
2.43
2.36
2.23
2.05
1.79
1.42
0.92
0.36
-0.13
-0.41
-0.38
-0.04
0.53
1.20
1.84
2.36
2.69
2.79
2.65
2.34
1.97
1.65
1.49
1.53
1.73
1.99
2.20
2.27
2.15
1.82
1.33
0.75
0.18
-0.27
-0.47
-0.38
-0.04
0.38
0.67
0.57
-0.07
-1.21
-2.63
-3.99
-4.95
-5.30
-5.10
-4.60
-4.13
-3.92
-4.04
-4.34
-4.57
-4.51
-4.09
-3.42
-2.71
-2.19
-1.98
-2.09
-2.46
-3.05
-3.83
-4.70
-5.37
-5.44
-4.44
-2.08
1.52
5.84
10.09
13.50
15.55
16.15
15.55
14.21
12.57
10.93
9.50
8.36
7.55
7.02
6.69
6.35
5.80
4.86
3.51
1.90
0.34
-0.83
-1.35
-1.22
-0.65
0.04
0.49
0.54
0.24
-0.19
-0.50
-0.47
-0.06
0.64
1.42
2.05
2.33
2.17
1.61
0.81
0.00
-0.58
-0.77
-0.52
0.12
0.98
1.92
2.78
3.51
4.07
4.47
4.73
4.84
4.81
4.65
4.39
4.04
3.64
3.15
2.57
1.88
1.10
0.31
-0.39
-0.87
-1.09
-1.08
-0.96
-0.87
-0.88
-0.95
-0.97
-0.82
-0.48
-0.08
0.14
-0.06
-0.86
-2.23
-4.02
-5.99
-7.90
-9.62
-11.11
-12.39
-13.44
-14.14
-14.29
-13.69
-12.33
-10.40
-8.26
-6.24
-4.50
-2.93
-1.43
-0.03
0.87
0.66
-1.14
-4.53
-8.93
-13.27
-16.52
-18.13
-18.28
-17.84
-17.99
-19.66
-23.18
-28.02
-33.00
-36.70
-38.14
-37.28
-35.12
-33.37
-33.76
-37.21
-43.40
-50.82
-57.36
-61.25
-61.87
-60.21
-58.76
-60.65
-68.49
-82.91
-101.72
-119.99
-131.22
-129.07
-109.08
-70.04
-14.87
49.25
111.89
161.69
189.53
191.66
171.08
136.57
99.18
68.18
48.03
38.11
34.76
34.20
34.56
35.91
38.77
42.71
45.93
46.16
42.20
34.80
26.38
20.00
17.74
19.73
24.15
28.09
29.11
26.24
20.44
13.97
9.27
7.72
9.13
12.00
14.40
14.92
13.25
10.09
6.68
4.10
2.81
2.56
2.67
2.46
1.58
0.09
-1.63
-3.19
-4.32
-5.00
-5.37
-5.56
-5.65
-5.65
-5.56
-5.40
-5.25
-5.12
-4.97
-4.71
-4.30
-3.76
-3.18
-2.69
-2.34
-2.12
-1.96
-1.79
-1.56
-1.26
-0.92
-0.61
-0.36
-0.23
-0.24
-0.37
-0.57
-0.81
-1.02
-1.17
-1.24
-1.19
-1.05
-0.81
-0.51
-0.16
0.16
0.39
0.48
0.39
0.16
-0.14
-0.41
-0.58
-0.61
-0.52
-0.36
-0.17
0.03
0.20
0.32
0.36
0.30
0.14
-0.06
-0.27
-0.44
-0.55
-0.63
-0.70
-0.75
-0.79
-0.79
-0.73
-0.63
-0.49
-0.34
-0.17
-0.04
0.04
0.03
-0.11
-0.34
-0.60
-0.83
-1.00
-1.08
-1.10
-1.06
-0.98
-0.89
-0.84
-0.86
-1.01
-1.27
-1.62
-1.95
-2.21
-2.35
-2.38
-2.33
-2.25
-2.15
-2.02
-1.85
-1.65
-1.41
-1.13
-0.85
-0.58
-0.35
-0.20
-0.14
-0.18
-0.27
-0.37
-0.43
-0.39
-0.24
0.02
0.38
0.84
1.36
1.91
2.44
2.91
3.28
3.57
3.81
4.04
4.25
4.43
4.54
4.55
4.47
4.32
4.14
3.92
3.71
3.52
3.38
3.29
3.22
3.12
2.90
2.52
2.01
1.41
0.74
-0.02
-0.94
-1.97
-2.97
-3.72
-4.04
-3.94
-3.63
-3.44
-3.56
-3.98
-4.42
-4.56
-4.21
-3.44
-2.52
-1.78
-1.36
-1.21
-1.14
-0.95
-0.61
-0.25
-0.02
0.03
0.07
0.37
1.09
2.06
2.74
2.50
1.05
-1.30
-3.72
-5.30
-5.57
-4.72
-3.35
-2.01
-0.89
0.17
1.41
2.78
3.95
4.46
4.17
3.31
2.42
1.90
1.89
2.15
2.37
2.33
2.07
1.70
1.34
1.03
0.76
0.51
0.25
-0.09
-0.58
-1.20
-1.86
-2.39
-2.67
-2.67
-2.55
-2.49
-2.62
-2.90
-3.19
-3.34
-3.25
-2.93
-2.49
-2.06
-1.78
-1.72
-1.86
-2.13
-2.40
-2.53
-2.40
-1.96
-1.22
-0.25
0.82
1.88
2.84
3.66
4.34
4.95
5.54
6.12
6.60
6.86
6.77
6.33
5.65
4.89
4.21
3.64
3.10
2.45
1.63
0.72
-0.13
-0.75
-1.07
-1.17
-1.22
-1.39
-1.73
-2.11
-2.37
-2.33
-1.97
-1.41
-0.86
-0.48
-0.33
-0.35
-0.43
-0.46
-0.41
-0.32
-0.24
-0.21
-0.25
-0.39
-0.60
-0.85
-1.08
-1.19
-1.12
-0.89
-0.56
-0.27
-0.11
-0.09
-0.16
-0.23
-0.23
-0.15
-0.01
0.13
0.24
0.33
0.42
0.54
0.65
0.74
0.77
0.73
0.62
0.50
0.36
0.25
0.14
0.03
-0.09
-0.22
-0.33
-0.38
-0.31
-0.14
0.10
0.31
0.40
0.32
0.11
-0.14
-0.35
-0.48
-0.57
-0.69
-0.86
-1.02
-1.06
-0.91
-0.57
-0.17
0.12
0.20
0.09
-0.08
-0.14
-0.00
0.31
0.67
0.94
1.03
0.92
0.65
0.30
-0.02
-0.21
-0.20
-0.01
0.28
0.51
0.58
0.43
0.17
-0.07
-0.17
-0.10
0.03
0.09
-0.02
-0.26
-0.55
-0.74
-0.75
-0.60
-0.41
-0.26
-0.23
-0.26
-0.30
-0.27
-0.16
0.01
0.17
0.28
0.32
0.32
0.30
0.29
0.24
0.12
-0.13
-0.48
-0.84
-1.07
-1.07
-0.80
-0.33
0.17
0.53
0.66
0.56
0.36
0.17
0.11
0.18
0.39
0.66
0.98
1.29
1.52
1.56
1.36
0.90
0.30
-0.26
-0.61
-0.63
-0.37
0.02
0.37
0.59
0.69
0.76
0.89
1.11
1.36
1.51
1.42
1.03
0.37
-0.42
-1.13
-1.56
-1.59
-1.24
-0.70
-0.21
0.03
-0.06
-0.43
-0.90
-1.33
-1.62
-1.79
-1.90
-1.98
-2.00
-1.88
-1.56
-1.05
-0.46
0.04
0.30
0.22
-0.14
-0.64
-1.09
-1.31
-1.20
-0.82
-0.28
0.23
0.56
0.62
0.39
-0.08
-0.68
-1.31
-1.86
-2.25
-2.40
-2.24
-1.75
-0.99
-0.06
0.88
1.67
2.20
2.44
2.41
2.22
1.95
1.67
1.41
1.19
1.00
0.85
0.75
0.69
0.66
0.65
0.63
0.57
0.43
0.22
-0.01
-0.20
-0.28
-0.25
-0.18
-0.17
-0.30
-0.55
-0.84
-1.04
-1.08
-0.94
-0.73
-0.55
-0.47
-0.50
-0.57
-0.61
-0.57
-0.44
-0.27
-0.09
0.07
0.21
0.33
0.44
0.55
0.62
0.65
0.61
0.51
0.40
0.30
0.26
0.25
0.26
0.25
0.24
0.24
0.25
0.30
0.38
0.44
0.45
0.40
0.26
0.06
-0.18
-0.40
-0.55
-0.58
-0.49
-0.31
-0.09
0.11
0.25
0.31
0.28
0.21
0.10
-0.01
-0.10
-0.16
-0.20
-0.23
-0.25
-0.25
-0.17
-0.01
0.25
0.53
0.73
0.77
0.59
0.23
-0.25
-0.71
-1.08
-1.33
-1.43
-1.42
-1.30
-1.06
-0.71
-0.30
0.06
0.25
0.17
-0.17
-0.67
-1.16
-1.45
-1.47
-1.22
-0.83
-0.44
-0.15
0.04
0.15
0.25
0.37
0.52
0.71
0.90
1.06
1.16
1.17
1.07
0.89
0.69
0.52
0.43
0.43
0.46
0.47
0.45
0.41
0.41
0.48
0.63
0.80
0.89
0.83
0.61
0.30
0.02
-0.14
-0.16
-0.09
-0.05
-0.11
-0.32
-0.61
-0.89
-1.07
-1.13
-1.11
-1.06
-1.03
-1.02
-0.97
-0.85
-0.63
-0.34
-0.03
0.24
0.47
0.65
0.82
0.98
1.11
1.15
1.05
0.80
0.42
0.03
-0.30
-0.49
-0.55
-0.53
-0.51
-0.56
-0.66
-0.76
-0.80
-0.76
-0.63
-0.45
-0.23
-0.01
0.19
0.35
0.41
0.36
0.21
0.05
-0.02
0.04
0.20
0.35
0.40
0.30
0.12
-0.08
-0.20
-0.26
-0.27
-0.26
-0.23
-0.14
0.02
0.23
0.44
0.58
0.67
0.75
0.87
1.05
1.21
1.26
1.10
0.72
0.18
-0.41
-0.92
-1.23
-1.28
-1.05
-0.60
-0.08
0.38
0.63
0.65
0.48
0.25
0.05
-0.09
-0.23
-0.41
-0.65
-0.87
-0.95
-0.83
-0.49
-0.03
0.42
0.77
0.97
1.02
0.92
0.69
0.33
-0.10
-0.48
-0.70
-0.64
-0.32
0.12
0.51
0.67
0.55
0.23
-0.14
-0.41
-0.49
-0.40
-0.20
0.00
0.14
0.17
0.09
-0.03
-0.15
-0.22
-0.25
-0.28
-0.37
-0.49
-0.58
-0.55
-0.35
-0.08
0.12
0.10
-0.16
-0.58
-0.96
-1.14
-1.06
-0.81
-0.54
-0.36
-0.28
-0.20
-0.03
0.28
0.65
0.96
1.09
0.98
0.68
0.30
-0.02
-0.22
-0.27
-0.24
-0.18
-0.12
-0.06
-0.00
0.02
-0.04
-0.22
-0.50
-0.78
-0.92
-0.84
-0.55
-0.16
0.16
0.27
0.13
-0.18
-0.51
-0.68
-0.60
-0.28
0.21
0.75
1.22
1.57
1.76
1.83
1.83
1.78
1.68
1.50
1.21
0.85
0.50
0.26
0.21
0.30
0.41
0.40
0.22
-0.09
-0.38
-0.52
-0.48
-0.30
-0.12
-0.02
-0.01
-0.04
-0.04
0.02
0.10
0.13
0.08
-0.04
-0.19
-0.32
-0.40
-0.42
-0.41
-0.36
-0.29
-0.24
-0.25
-0.37
-0.61
-0.91
-1.14
-1.21
-1.06
-0.74
-0.37
-0.05
0.11
0.12
0.04
-0.06
-0.14
-0.21
-0.32
-0.51
-0.77
-1.07
-1.32
-1.48
-1.51
-1.44
-1.31
-1.15
-0.98
-0.80
-0.62
-0.43
-0.30
-0.28
-0.38
-0.56
-0.74
-0.84
-0.84
-0.80
-0.85
-1.11
-1.58
-2.10
-2.47
-2.57
-2.40
-2.13
-1.98
-2.09
-2.41
-2.78
-2.98
-2.86
-2.43
-1.79
-1.08
-0.38
0.31
0.98
1.63
2.19
2.61
2.85
2.95
3.02
3.15
3.45
3.96
4.61
5.32
5.95
6.39
6.59
6.54
6.31
5.99
5.60
5.15
4.61
3.99
3.40
3.00
2.91
3.14
3.57
4.00
4.29
4.39
4.33
4.19
4.01
3.79
3.50
3.09
2.49
1.62
0.48
-0.80
-1.96
-2.77
-3.15
-3.21
-3.20
-3.24
-3.29
-3.18
-2.80
-2.24
-1.73
-1.48
-1.48
-1.54
-1.43
-1.07
-0.65
-0.46
-0.72
-1.36
-2.14
-2.80
-3.26
-3.61
-3.99
-4.41
-4.78
-4.98
-4.97
-4.81
-4.60
-4.37
-4.12
-3.82
-3.48
-3.16
-2.94
-2.84
-2.82
-2.78
-2.59
-2.19
-1.61
-0.94
-0.29
0.24
0.64
0.94
1.20
1.46
1.69
1.83
1.84
1.76
1.71
1.82
2.15
2.57
2.89
2.88
2.50
1.88
1.28
0.89
0.76
0.75
0.68
0.45
0.12
-0.17
-0.27
-0.20
-0.07
-0.03
-0.14
-0.34
-0.50
-0.49
-0.29
0.05
0.37
0.55
0.53
0.32
0.03
-0.23
-0.35
-0.29
-0.07
0.26
0.63
0.95
1.15
1.18
1.03
0.69
0.25
-0.20
-0.55
-0.71
-0.66
-0.45
-0.12
0.26
0.61
0.86
0.96
0.89
0.71
0.49
0.33
0.26
0.25
0.23
0.13
-0.06
-0.29
-0.50
-0.62
-0.64
-0.60
-0.59
-0.64
-0.77
-0.93
-1.06
-1.09
-0.99
-0.80
-0.58
-0.44
-0.43
-0.54
-0.70
-0.76
-0.66
-0.37
0.03
0.39
0.62
0.70
0.65
0.56
0.47
0.38
0.25
0.06
-0.15
-0.32
-0.38
-0.33
-0.21
-0.13
-0.18
-0.35
-0.54
-0.65
-0.61
-0.43
-0.20
-0.03
-0.04
-0.24
-0.59
-0.98
-1.30
-1.46
-1.47
-1.43
-1.46
-1.66
-2.00
-2.36
-2.57
-2.51
-2.21
-1.79
-1.41
-1.14
-0.95
-0.72
-0.33
0.25
1.01
1.85
2.74
3.63
4.54
5.41
6.11
6.50
6.42
5.83
4.85
3.69
2.58
1.71
1.10
0.65
0.23
-0.28
-0.85
-1.38
-1.72
-1.81
-1.68
-1.48
-1.33
-1.27
-1.27
-1.24
-1.16
-1.05
-0.97
-0.99
-1.12
-1.30
-1.46
-1.52
-1.46
-1.28
-1.03
-0.79
-0.62
-0.54
-0.58
-0.70
-0.86
-1.04
-1.26
-1.53
-1.86
-2.21
-2.49
-2.64
-2.70
-2.74
-2.87
-3.11
-3.42
-3.70
-3.87
-3.95
-4.02
-4.19
-4.52
-4.94
-5.34
-5.58
-5.56
-5.23
-4.58
-3.58
-2.23
-0.58
1.24
3.02
4.55
5.68
6.43
6.97
7.53
8.30
9.28
10.30
11.02
11.08
10.27
8.58
6.25
3.66
1.25
-0.67
-1.95
-2.60
-2.74
-2.49
-1.92
-1.12
-0.24
0.47
0.71
0.31
-0.69
-1.99
-3.17
-3.91
-4.14
-4.00
-3.74
-3.59
-3.62
-3.78
-3.98
-4.15
-4.25
-4.27
-4.21
-4.08
-3.89
-3.67
-3.45
-3.22
-2.97
-2.70
-2.42
-2.19
-2.05
-1.97
-1.91
-1.82
-1.69
-1.52
-1.33
-1.12
-0.87
-0.58
-0.26
0.09
0.53
1.24
2.47
4.39
6.99
10.01
13.07
15.84
18.19
20.14
21.81
23.17
24.07
24.28
23.68
22.33
20.41
18.02
15.12
11.54
7.19
2.30
-2.59
-6.77
-9.70
-11.25
-11.73
-11.60
-11.27
-10.91
-10.45
-9.81
-9.01
-8.22
-7.64
-7.39
-7.36
-7.35
-7.12
-6.57
-5.81
-5.04
-4.51
-4.31
-4.38
-4.52
-4.49
-4.19
-3.68
-3.11
-2.68
-2.49
-2.54
-2.70
-2.86
-2.93
-2.91
-2.80
-2.62
-2.40
-2.13
-1.85
-1.62
-1.49
-1.47
-1.53
-1.64
-1.73
-1.76
-1.66
-1.39
-0.92
-0.29
0.40
0.99
1.35
1.46
1.36
1.21
1.15
1.23
1.44
1.69
1.89
1.97
1.95
1.91
1.90
1.93
1.99
2.02
1.97
1.84
1.66
1.42
1.14
0.82
0.52
0.27
0.13
0.12
0.22
0.34
0.44
0.50
0.56
0.67
0.83
0.99
1.06
0.98
0.73
0.35
-0.07
-0.46
-0.76
-0.95
-1.03
-1.01
-0.93
-0.80
-0.64
-0.45
-0.26
-0.11
-0.04
-0.10
-0.27
-0.48
-0.66
-0.75
-0.74
-0.67
-0.60
-0.58
-0.62
-0.74
-0.92
-1.09
-1.21
-1.20
-1.02
-0.69
-0.29
0.08
0.29
0.29
0.12
-0.13
-0.36
-0.49
-0.53
-0.50
-0.47
-0.45
-0.43
-0.38
-0.28
-0.17
-0.11
-0.16
-0.33
-0.57
-0.77
-0.81
-0.61
-0.20
0.32
0.80
1.12
1.20
1.07
0.83
0.60
0.50
0.56
0.76
1.01
1.23
1.36
1.38
1.28
1.09
0.79
0.42
0.05
-0.24
-0.36
-0.26
-0.04
0.17
0.25
0.11
-0.18
-0.50
-0.69
-0.71
-0.58
-0.38
-0.18
0.00
0.18
0.36
0.52
0.60
0.52
0.30
0.02
-0.19
-0.21
-0.05
0.22
0.45
0.55
0.48
0.30
0.08
-0.13
-0.32
-0.53
-0.78
-1.02
-1.18
-1.17
-0.96
-0.62
-0.24
0.06
0.19
0.17
0.04
-0.09
-0.16
-0.15
-0.08
-0.03
-0.05
-0.15
-0.27
-0.36
-0.35
-0.24
-0.08
0.03
0.05
-0.04
-0.19
-0.30
-0.35
-0.33
-0.28
-0.22
-0.12
0.03
0.23
0.44
0.59
0.62
0.54
0.39
0.27
0.24
0.30
0.44
0.61
0.75
0.83
0.82
0.71
0.57
0.48
0.52
0.72
1.03
1.32
1.47
1.44
1.26
1.04
0.89
0.84
0.87
0.90
0.90
0.84
0.72
0.53
0.22
-0.23
-0.80
-1.38
-1.81
-1.98
-1.83
-1.47
-1.07
-0.80
-0.73
-0.82
-0.97
-1.08
-1.16
-1.24
-1.37
-1.55
-1.69
-1.71
-1.55
-1.25
-0.86
-0.49
-0.21
-0.04
-0.01
-0.09
-0.24
-0.38
-0.42
-0.28
0.04
0.45
0.80
0.99
1.01
0.93
0.85
0.81
0.82
0.78
0.64
0.37
-0.00
-0.40
-0.76
-1.01
-1.14
-1.15
-1.02
-0.80
-0.52
-0.27
-0.13
-0.15
-0.31
-0.54
-0.76
-0.88
-0.91
-0.83
-0.68
-0.48
-0.22
0.14
0.56
0.97
1.25
1.34
1.24
1.05
0.87
0.76
0.69
0.62
0.50
0.34
0.21
0.19
0.29
0.47
0.68
0.85
0.97
1.05
1.09
1.09
1.06
1.05
1.10
1.26
1.47
1.65
1.71
1.61
1.39
1.15
0.97
0.91
0.94
0.98
0.95
0.80
0.54
0.24
0.01
-0.10
-0.06
0.10
0.31
0.49
0.58
0.60
0.56
0.52
0.45
0.35
0.15
-0.18
-0.65
-1.26
-1.96
-2.70
-3.41
-4.03
-4.52
-4.87
-5.14
-5.38
-5.61
-5.85
-6.06
-6.19
-6.20
-6.08
-5.84
-5.53
-5.13
-4.65
-4.06
-3.36
-2.58
-1.74
-0.86
0.06
0.97
1.84
2.57
3.11
3.44
3.59
3.60
3.50
3.26
2.89
2.49
2.21
2.20
2.53
3.15
3.94
4.79
5.68
6.60
7.55
8.46
9.17
9.54
9.53
9.21
8.77
8.44
8.33
8.39
8.38
7.99
6.96
5.33
3.42
1.81
1.03
1.32
2.51
4.11
5.61
6.57
6.78
6.06
4.23
1.13
-3.09
-7.65
-11.27
-12.63
-11.13
-7.30
-2.72
0.73
1.80
0.43
-2.36
-5.14
-6.86
-7.35
-7.11
-6.86
-6.95
-7.19
-7.09
-6.29
-4.85
-3.24
-2.04
-1.56
-1.78
-2.33
-2.75
-2.69
-2.11
-1.21
-0.34
0.22
0.33
0.09
-0.29
-0.61
-0.73
-0.64
-0.42
-0.16
0.07
0.24
0.37
0.46
0.51
0.50
0.41
0.23
-0.02
-0.30
-0.56
-0.77
-0.91
-0.96
-0.92
-0.83
-0.71
-0.60
-0.53
-0.49
-0.47
-0.45
-0.39
-0.29
-0.15
-0.02
0.05
0.04
-0.08
-0.26
-0.44
-0.52
-0.43
-0.15
0.27
0.69
0.96
0.98
0.77
0.43
0.10
-0.09
-0.11
-0.02
0.09
0.13
0.08
-0.00
-0.09
-0.14
-0.18
-0.24
-0.32
-0.40
-0.46
-0.49
-0.48
-0.47
-0.45
-0.41
-0.35
-0.27
-0.24
-0.33
-0.60
-1.06
-1.61
-2.09
-2.37
-2.43
-2.35
-2.29
-2.39
-2.69
-3.10
-3.45
-3.60
-3.52
-3.30
-3.12
-3.17
-3.53
-4.17
-4.94
-5.63
-6.02
-5.93
-5.28
-4.13
-2.60
-0.92
0.68
2.01
2.90
3.36
3.65
4.32
5.95
8.84
12.69
16.53
19.06
19.22
16.63
11.89
6.27
1.15
-2.64
-5.09
-6.83
-8.56
-10.58
-12.61
-14.03
-14.46
-14.09
-13.69
-14.18
-16.09
-19.24
-22.78
-25.68
-27.25
-27.50
-27.00
-26.61
-27.06
-28.71
-31.53
-35.14
-38.88
-41.94
-43.67
-43.75
-42.42
-40.40
-38.60
-37.76
-38.13
-39.42
-40.69
-40.36
-36.26
-26.17
-8.66
15.97
45.17
74.66
99.76
117.13
125.97
128.03
126.53
124.45
123.31
122.75
121.16
116.88
109.22
98.58
86.01
72.42
58.18
43.40
28.46
14.54
3.27
-4.14
-7.86
-9.56
-11.68
-16.05
-22.83
-30.46
-36.71
-39.99
-40.27
-38.79
-37.08
-35.98
-35.30
-34.31
-32.50
-30.03
-27.66
-26.24
-26.11
-26.89
-27.62
-27.33
-25.48
-22.41
-19.06
-16.56
-15.56
-15.91
-16.76
-17.09
-16.29
-14.46
-12.26
-10.46
-9.48
-9.23
-9.36
-9.55
-9.74
-9.97
-10.14
-9.91
-8.82
-6.69
-3.89
-1.22
0.42
0.62
-0.42
-1.98
-3.28
-3.92
-4.00
-3.93
-4.05
-4.38
-4.63
-4.43
-3.57
-2.20
-0.72
0.47
1.12
1.27
1.16
1.07
1.20
1.61
2.16
2.66
2.96
2.98
2.80
2.58
2.47
2.58
2.89
3.25
3.49
3.48
3.20
2.74
2.29
2.00
1.94
2.09
2.32
2.51
2.55
2.42
2.14
1.81
1.55
1.44
1.51
1.69
1.85
1.88
1.68
1.31
0.88
0.53
0.36
0.37
0.55
0.85
1.24
1.59
1.71
1.38
0.53
-0.71
-1.92
-2.66
-2.65
-2.00
-1.14
-0.57
-0.55
-1.00
-1.56
-1.84
-1.70
-1.25
-0.79
-0.62
-0.79
-1.14
-1.43
-1.45
-1.21
-0.82
-0.47
-0.29
-0.29
-0.35
-0.34
-0.14
0.23
0.68
1.06
1.26
1.24
1.06
0.79
0.54
0.39
0.36
0.40
0.43
0.36
0.18
-0.06
-0.22
-0.24
-0.14
-0.03
-0.07
-0.37
-0.84
-1.32
-1.57
-1.50
-1.14
-0.70
-0.37
-0.25
-0.31
-0.41
-0.46
-0.42
-0.38
-0.43
-0.65
-0.97
-1.26
-1.37
-1.25
-0.95
-0.61
-0.35
-0.21
-0.19
-0.22
-0.27
-0.38
-0.58
-0.90
-1.24
-1.52
-1.60
-1.48
-1.23
-0.99
-0.86
-0.85
-0.92
-0.99
-1.05
-1.16
-1.38
-1.72
-2.12
-2.44
-2.59
-2.52
-2.29
-1.99
-1.74
-1.59
-1.54
-1.57
-1.61
-1.64
-1.64
-1.64
-1.68
-1.80
-2.04
-2.39
-2.87
-3.44
-4.08
-4.69
-5.16
-5.35
-5.17
-4.63
-3.79
-2.81
-1.81
-0.90
-0.12
0.55
1.11
1.62
2.11
2.67
3.41
4.39
5.54
6.69
7.59
8.05
8.10
7.92
7.79
7.87
8.06
8.08
7.60
6.47
4.86
3.18
1.89
1.25
1.26
1.74
2.47
3.28
4.09
4.83
5.37
5.60
5.45
5.03
4.59
4.40
4.62
5.18
5.81
6.13
5.81
4.72
2.97
0.84
-1.28
-3.05
-4.27
-4.92
-5.11
-5.05
-4.91
-4.76
-4.61
-4.41
-4.11
-3.76
-3.41
-3.16
-3.01
-2.94
-2.87
-2.77
-2.63
-2.47
-2.33
-2.22
-2.13
-2.07
-2.05
-2.11
-2.24
-2.38
-2.48
-2.48
-2.38
-2.21
-2.01
-1.78
-1.53
-1.28
-1.05
-0.92
-0.92
-1.02
-1.15
-1.22
-1.16
-1.02
-0.84
-0.72
-0.72
-0.83
-0.99
-1.12
-1.13
-0.98
-0.70
-0.37
-0.06
0.16
0.29
0.37
0.43
0.49
0.52
0.50
0.42
0.29
0.15
0.02
-0.11
-0.26
-0.48
-0.77
-1.17
-1.64
-2.13
-2.55
-2.78
-2.75
-2.47
-2.03
-1.56
-1.16
-0.84
-0.59
-0.37
-0.18
-0.01
0.15
0.41
0.86
1.56
2.44
3.31
3.94
4.22
4.20
4.02
3.86
3.81
3.82
3.73
3.48
3.07
2.65
2.40
2.40
2.59
2.81
2.87
2.69
2.33
1.88
1.49
1.20
0.99
0.80
0.54
0.20
-0.20
-0.58
-0.85
-0.94
-0.80
-0.42
0.15
0.80
1.40
1.84
2.07
2.12
2.09
2.13
2.31
2.62
2.98
3.26
3.34
3.17
2.79
2.32
1.88
1.57
1.42
1.43
1.57
1.82
2.15
2.49
2.74
2.84
2.73
2.46
2.10
1.76
1.50
1.30
1.11
0.82
0.38
-0.20
-0.83
-1.39
-1.82
-2.15
-2.51
-3.02
-3.78
-4.76
-5.81
-6.76
-7.43
-7.75
-7.80
-7.70
-7.58
-7.51
-7.40
-7.09
-6.45
-5.45
-4.19
-2.88
-1.69
-0.79
-0.23
0.03
0.08
0.09
0.21
0.55
1.08
1.65
2.03
2.03
1.65
1.03
0.44
0.07
-0.03
0.04
0.09
0.04
-0.10
-0.24
-0.30
-0.28
-0.25
-0.27
-0.39
-0.54
-0.67
-0.75
-0.77
-0.78
-0.78
-0.78
-0.72
-0.60
-0.46
-0.38
-0.41
-0.58
-0.84
-1.10
-1.29
-1.35
-1.34
-1.32
-1.33
-1.36
-1.34
-1.19
-0.88
-0.47
-0.10
0.13
0.14
-0.00
-0.16
-0.19
-0.03
0.27
0.61
0.85
0.94
0.96
1.03
1.19
1.41
1.58
1.58
1.39
1.10
0.86
0.78
0.87
1.05
1.19
1.19
1.04
0.83
0.64
0.57
0.63
0.78
0.96
1.10
1.15
1.09
0.92
0.67
0.41
0.20
0.09
0.12
0.29
0.54
0.78
0.94
0.97
0.88
0.73
0.60
0.52
0.48
0.46
0.41
0.33
0.22
0.07
-0.11
-0.32
-0.53
-0.68
-0.70
-0.56
-0.28
0.06
0.37
0.57
0.61
0.54
0.41
0.31
0.28
0.36
0.51
0.68
0.76
0.66
0.33
-0.15
-0.66
-1.01
-1.08
-0.87
-0.49
-0.10
0.13
0.17
0.09
0.01
0.05
0.23
0.47
0.65
0.69
0.55
0.34
0.19
0.26
0.58
1.03
1.31
1.11
0.24
-1.28
-3.26
-5.48
-7.77
-9.94
-11.60
-12.13
-10.82
-7.26
-1.81
4.45
9.97
13.50
14.52
13.42
11.09
8.36
5.66
2.99
0.32
-2.15
-3.96
-4.67
-4.15
-2.80
-1.28
-0.24
-0.01
-0.52
-1.40
-2.25
-2.78
-2.88
-2.60
-2.09
-1.55
-1.15
-0.98
-1.06
-1.29
-1.54
-1.69
-1.69
-1.61
-1.52
-1.50
-1.60
-1.76
-1.96
-2.11
-2.16
-2.02
-1.66
-1.06
-0.31
0.45
1.06
1.39
1.43
1.23
0.93
0.68
0.63
0.89
1.50
2.41
3.45
4.37
4.98
5.21
5.09
4.74
4.22
3.54
2.70
1.78
1.00
0.67
1.09
2.37
4.33
6.54
8.47
9.68
9.90
9.12
7.48
5.27
2.79
0.36
-1.80
-3.54
-4.81
-5.60
-6.01
-6.16
-6.24
-6.44
-6.85
-7.43
-7.99
-8.29
-8.16
-7.56
-6.57
-5.40
-4.26
-3.30
-2.58
-2.05
-1.54
-0.81
0.38
2.13
4.30
6.51
8.21
8.82
8.00
5.70
2.24
-1.83
-5.82
-9.12
-11.25
-12.02
-11.53
-10.15
-8.34
-6.57
-5.13
-4.07
-3.16
-1.93
0.15
3.38
7.65
12.29
16.24
18.40
18.05
15.17
10.43
4.97
-0.04
-3.66
-5.38
-5.12
-3.16
-0.08
3.41
6.57
8.84
10.06
10.46
10.47
10.53
10.79
11.16
11.34
11.07
10.21
8.84
7.11
5.20
3.23
1.28
-0.58
-2.27
-3.77
-5.12
-6.44
-7.85
-9.37
-10.91
-12.30
-13.41
-14.24
-14.90
-15.52
-16.11
-16.55
-16.60
-16.12
-15.15
-13.94
-12.86
-12.22
-12.16
-12.62
-13.38
-14.13
-14.62
-14.67
-14.33
-13.81
-13.44
-13.49
-13.96
-14.62
-15.04
-14.93
-14.31
-13.53
-13.10
-13.44
-14.63
-16.45
-18.49
-20.31
-21.34
-20.81
-17.69
-10.97
-0.13
14.40
31.11
47.89
62.68
74.17
81.92
86.15
87.16
84.95
79.15
69.44
56.01
39.77
22.38
5.86
-7.96
-17.99
-24.13
-27.18
-28.40
-28.80
-28.79
-28.12
-26.34
-23.38
-19.78
-16.53
-14.40
-13.50
-13.13
-12.33
-10.50
-7.84
-5.27
-3.81
-3.94
-5.38
-7.35
-8.99
-9.77
-9.61
-8.71
-7.32
-5.60
-3.64
-1.57
0.38
1.88
2.62
2.46
1.51
0.11
-1.26
-2.16
-2.19
-1.19
0.83
3.55
6.47
8.99
10.63
11.14
10.60
9.38
7.95
6.73
5.91
5.47
5.27
5.16
5.09
5.03
4.99
4.96
4.94
4.93
4.96
5.04
5.10
5.04
4.73
4.12
3.28
2.38
1.63
1.13
0.90
0.89
1.01
1.19
1.38
1.52
1.57
1.46
1.12
0.49
-0.43
-1.55
-2.75
-3.88
-4.77
-5.31
-5.44
-5.19
-4.62
-3.86
-3.08
-2.45
-2.09
-2.05
-2.33
-2.83
-3.44
-4.08
-4.66
-5.14
-5.43
-5.45
-5.15
-4.63
-4.03
-3.55
-3.28
-3.22
-3.20
-3.08
-2.79
-2.37
-1.98
-1.74
-1.71
-1.84
-2.01
-2.09
-2.01
-1.78
-1.47
-1.20
-1.04
-0.97
-0.88
-0.66
-0.20
0.55
1.54
2.68
3.82
4.83
5.58
5.97
5.96
5.58
4.94
4.17
3.42
2.78
2.26
1.81
1.35
0.83
0.25
-0.32
-0.76
-0.95
-0.85
-0.50
-0.06
0.30
0.44
0.39
0.28
0.29
0.53
1.00
1.57
2.07
2.36
2.39
2.20
1.92
1.67
1.52
1.49
1.56
1.70
1.84
1.95
1.97
1.86
1.61
1.27
0.89
0.57
0.42
0.51
0.78
1.04
0.99
0.36
-0.91
-2.56
-4.09
-4.96
-4.91
-4.03
-2.78
-1.68
-1.06
-0.95
-1.15
-1.44
-1.73
-2.13
-2.73
-3.48
-4.16
-4.46
-4.24
-3.59
-2.82
-2.32
-2.30
-2.74
-3.35
-3.80
-3.86
-3.52
-2.97
-2.47
-2.23
-2.31
-2.62
-3.02
-3.40
-3.67
-3.84
-3.95
-4.05
-4.24
-4.54
-4.91
-5.26
-5.46
-5.44
-5.22
-4.91
-4.67
-4.62
-4.73
-4.91
-5.04
-5.05
-4.88
-4.46
-3.69
-2.55
-1.21
-0.09
0.32
-0.29
-1.78
-3.62
-5.11
-5.82
-5.82
-5.66
-6.00
-7.14
-8.84
-10.43
-11.24
-10.99
-9.93
-8.63
-7.65
-7.18
-7.04
-6.83
-6.23
-5.17
-3.93
-2.99
-2.89
-4.03
-6.49
-9.93
-13.61
-16.43
-17.48
-16.35
-13.38
-9.55
-6.18
-4.39
-4.72
-6.99
-10.25
-13.06
-13.65
-10.39
-2.31
10.30
25.60
40.54
51.91
57.62
57.57
53.69
48.85
45.48
44.57
45.52
46.93
47.61
47.31
46.71
46.86
48.53
51.77
56.10
60.81
65.25
69.12
72.35
75.14
77.79
80.54
83.52
86.57
89.22
90.96
91.55
91.28
90.95
91.37
92.97
95.59
98.69
101.70
104.06
104.96
102.46
93.63
75.15
45.17
5.08
-39.86
-81.77
-112.99
-129.01
-129.82
-119.18
-102.20
-82.98
-63.32
-43.27
-22.45
-1.20
19.23
37.45
52.69
64.80
73.46
77.12
72.85
57.51
29.67
-8.65
-51.82
-92.23
-122.96
-140.18
-144.04
-138.02
-126.86
-114.53
-103.24
-93.51
-85.09
-77.77
-71.77
-67.38
-64.53
-62.61
-60.61
-57.67
-53.53
-48.59
-43.72
-39.77
-37.17
-35.74
-34.82
-33.59
-31.47
-28.36
-24.63
-20.94
-17.92
-15.97
-15.11
-15.01
-15.21
-15.24
-14.85
-14.05
-13.08
-12.30
-11.97
-12.19
-12.78
-13.40
-13.76
-13.72
-13.43
-13.16
-13.17
-13.56
-14.20
-14.92
-15.57
-16.20
-16.95
-17.93
-19.13
-20.39
-21.48
-22.29
-22.97
-23.86
-25.37
-27.76
-30.99
-34.78
-38.65
-42.20
-45.30
-48.14
-51.24
-55.19
-60.40
-66.89
-74.22
-81.66
-88.61
-94.78
-100.42
-106.15
-112.62
-120.30
-129.42
-140.15
-152.68
-167.00
-182.18
-196.06
-205.22
-205.88
-195.23
-172.48
-138.97
-97.32
-50.23
0.18
52.06
102.89
148.98
185.86
209.88
219.79
217.55
207.52
194.72
182.85
173.34
165.68
158.50
150.79
142.41
133.97
126.15
119.19
112.81
106.45
99.67
92.44
85.19
78.56
73.10
68.95
65.74
62.78
59.33
54.97
49.75
44.10
38.60
33.65
29.38
25.58
21.89
17.91
13.36
8.22
2.70
-2.74
-7.57
-11.30
-13.68
-14.79
-14.95
-14.57
-13.95
-13.16
-12.08
-10.53
-8.49
-6.09
-3.63
-1.41
0.41
1.83
3.00
4.17
5.50
7.04
8.69
10.20
11.27
11.64
11.20
9.95
8.05
5.79
3.46
1.33
-0.42
-1.78
-2.85
-3.78
-4.70
-5.67
-6.63
-7.48
-8.09
-8.33
-8.13
-7.52
-6.58
-5.49
-4.51
-3.87
-3.69
-3.93
-4.38
-4.81
-5.04
-5.08
-5.10
-5.27
-5.70
-6.29
-6.85
-7.13
-7.02
-6.56
-5.92
-5.29
-4.76
-4.31
-3.83
-3.25
-2.56
-1.89
-1.35
-0.95
-0.59
-0.09
0.64
1.54
2.39
2.95
3.12
2.97
2.69
2.45
2.26
2.01
1.55
0.85
0.01
-0.74
-1.20
-1.31
-1.11
-0.75
-0.36
-0.05
0.13
0.18
0.10
-0.06
-0.26
-0.49
-0.72
-0.95
-1.17
-1.33
-1.35
-1.17
-0.82
-0.37
0.06
0.36
0.48
0.45
0.31
0.07
-0.28
-0.76
-1.38
-2.10
-2.83
-3.47
-3.93
-4.20
-4.33
-4.41
-4.52
-4.68
-4.82
-4.85
-4.75
-4.56
-4.43
-4.46
-4.64
-4.81
-4.72
-4.19
-3.19
-1.85
-0.44
0.87
2.02
3.07
4.09
5.07
5.89
6.43
6.60
6.45
6.12
5.72
5.29
4.78
4.08
3.08
1.79
0.29
-1.21
-2.51
-3.45
-3.91
-3.92
-3.57
-3.03
-2.46
-1.97
-1.62
-1.36
-1.14
-0.90
-0.62
-0.36
-0.20
-0.17
-0.26
-0.37
-0.44
-0.42
-0.38
-0.39
-0.54
-0.82
-1.16
-1.47
-1.61
-1.54
-1.23
-0.73
-0.12
0.54
1.18
1.77
2.28
2.68
2.91
2.95
2.79
2.46
2.03
1.60
1.23
0.96
0.76
0.60
0.44
0.25
-0.01
-0.37
-0.79
-1.22
-1.57
-1.77
-1.85
-1.86
-1.89
-1.94
-1.99
-1.94
-1.74
-1.42
-1.05
-0.75
-0.56
-0.45
-0.35
-0.19
0.05
0.35
0.65
0.93
1.15
1.33
1.51
1.73
2.05
2.48
3.01
3.54
4.00
4.30
4.40
4.31
4.03
3.58
2.97
2.21
1.33
0.35
-0.68
-1.69
-2.63
-3.45
-4.12
-4.62
-5.01
-5.36
-5.73
-6.16
-6.62
-7.00
-7.19
-7.05
-6.53
-5.71
-4.70
-3.71
-2.87
-2.26
-1.84
-1.55
-1.31
-1.06
-0.77
-0.40
0.10
0.75
1.55
2.42
3.28
4.15
5.14
6.38
7.87
9.40
10.55
10.90
10.28
8.80
6.87
4.92
3.28
2.02
1.12
0.53
0.28
0.43
0.94
1.57
1.93
1.66
0.59
-1.13
-3.07
-4.69
-5.53
-5.43
-4.53
-3.35
-2.57
-2.88
-4.71
-7.96
-11.88
-15.20
-16.53
-14.97
-10.55
-4.36
1.91
6.66
9.01
9.13
7.91
6.45
5.42
4.93
4.65
4.19
3.42
2.51
1.79
1.46
1.48
1.57
1.42
0.85
-0.11
-1.26
-2.30
-3.03
-3.29
-2.97
-2.01
-0.35
1.91
4.47
6.76
8.08
7.91
6.09
3.00
-0.64
-4.05
-6.75
-8.64
-9.95
-10.94
-11.72
-12.23
-12.35
-12.03
-11.44
-10.78
-10.21
-9.76
-9.29
-8.54
-7.31
-5.39
-2.55
1.38
6.45
12.36
18.39
23.52
26.81
27.72
26.42
23.67
20.51
17.81
15.96
14.81
13.84
12.48
10.39
7.62
4.59
1.88
-0.02
-0.94
-1.09
-0.97
-1.06
-1.61
-2.51
-3.32
-3.61
-3.19
-2.21
-1.12
-0.40
-0.34
-0.92
-1.90
-2.94
-3.82
-4.51
-5.15
-5.82
-6.46
-6.75
-6.21
-4.56
-1.94
0.93
3.03
3.47
1.94
-1.11
-4.65
-7.60
-9.24
-9.46
-8.64
-7.42
-6.39
-5.95
-6.28
-7.32
-8.76
-10.11
-10.76
-10.21
-8.32
-5.36
-1.97
1.14
3.38
4.53
4.70
4.30
3.87
3.90
4.69
6.17
7.91
9.35
9.95
9.53
8.23
6.45
4.62
2.94
1.44
0.02
-1.31
-2.39
-3.08
-3.34
-3.39
-3.60
-4.28
-5.45
-6.84
-7.96
-8.39
-7.91
-6.56
-4.60
-2.39
-0.32
1.25
2.04
1.94
1.06
-0.29
-1.70
-2.84
-3.59
-4.03
-4.43
-5.05
-6.02
-7.27
-8.59
-9.67
-10.30
-10.42
-10.17
-9.85
-9.79
-10.13
-10.71
-11.13
-10.96
-10.00
-8.47
-6.99
-6.23
-6.49
-7.51
-8.51
-8.65
-7.58
-5.58
-3.41
-1.75
-0.67
0.46
2.64
6.73
13.30
22.72
35.46
51.96
72.23
95.16
118.27
138.33
152.40
159.05
158.64
152.47
141.12
123.52
97.18
60.02
12.57
-40.91
-93.42
-137.73
-169.01
-186.27
-191.63
-188.75
-181.24
-171.86
-162.74
-155.48
-150.47
-145.95
-137.84
-121.21
-93.02
-54.59
-11.96
26.33
53.10
65.61
66.18
60.26
53.17
47.74
43.93
40.28
35.74
30.73
26.88
25.61
27.12
30.03
32.08
31.37
27.31
20.83
13.98
8.90
6.88
7.89
10.82
14.04
16.24
16.96
16.56
15.85
15.42
15.39
15.30
14.47
12.53
9.62
6.42
3.77
2.30
2.15
3.05
4.59
6.48
8.66
11.13
13.74
16.12
17.67
17.91
16.66
14.20
11.10
8.01
5.36
3.24
1.56
0.19
-0.89
-1.57
-1.75
-1.46
-0.91
-0.45
-0.41
-0.94
-1.94
-3.13
-4.13
-4.62
-4.52
-3.92
-3.06
-2.22
-1.54
-1.08
-0.74
-0.42
-0.06
0.35
0.75
1.08
1.32
1.46
1.50
1.37
1.01
0.36
-0.57
-1.66
-2.71
-3.53
-3.99
-4.09
-3.91
-3.61
-3.36
-3.25
-3.28
-3.36
-3.37
-3.24
-2.97
-2.66
-2.45
-2.43
-2.62
-2.92
-3.20
-3.33
-3.26
-3.00
-2.57
-2.05
-1.48
-0.97
-0.60
-0.45
-0.51
-0.70
-0.89
-0.94
-0.82
-0.58
-0.38
-0.39
-0.73
-1.40
-2.27
-3.14
-3.86
-4.30
-4.46
-4.43
-4.31
-4.24
-4.34
-4.65
-5.17
-5.82
-6.46
-6.93
-7.13
-7.02
-6.75
-6.56
-6.76
-7.51
-8.74
-10.13
-11.14
-11.10
-9.36
-5.43
0.85
9.18
18.77
28.46
36.99
43.31
46.74
47.06
44.42
39.20
31.92
23.28
14.21
5.73
-1.20
-5.99
-8.58
-9.41
-9.17
-8.51
-7.85
-7.34
-6.95
-6.61
-6.29
-6.05
-5.97
-6.07
-6.32
-6.60
-6.79
-6.82
-6.68
-6.45
-6.23
-6.06
-5.95
-5.84
-5.68
-5.42
-5.07
-4.65
-4.14
-3.49
-2.67
-1.72
-0.76
0.07
0.62
0.87
0.87
0.74
0.57
0.41
0.25
0.05
-0.19
-0.42
-0.57
-0.58
-0.46
-0.31
-0.23
-0.29
-0.46
-0.61
-0.62
-0.40
-0.03
0.35
0.54
0.45
0.12
-0.27
-0.52
-0.52
-0.25
0.18
0.62
0.93
1.03
0.93
0.67
0.32
-0.05
-0.39
-0.65
-0.81
-0.86
-0.84
-0.85
-0.94
-1.15
-1.40
-1.57
-1.56
-1.29
-0.78
-0.12
0.59
1.24
1.74
2.02
2.04
1.78
1.34
0.85
0.47
0.30
0.29
0.31
0.20
-0.16
-0.76
-1.49
-2.19
-2.69
-2.92
-2.88
-2.64
-2.32
-2.02
-1.81
-1.66
-1.49
-1.22
-0.81
-0.34
0.11
0.47
0.79
1.20
1.77
2.46
3.02
3.16
2.64
1.44
-0.16
-1.80
-3.09
-3.84
-4.01
-3.66
-2.83
-1.48
0.36
2.57
4.84
6.76
7.96
8.25
7.74
6.76
5.69
4.83
4.25
3.89
3.61
3.26
2.75
2.08
1.26
0.37
-0.52
-1.31
-1.89
-2.22
-2.28
-2.17
-1.98
-1.82
-1.74
-1.73
-1.73
-1.69
-1.58
-1.42
-1.28
-1.21
-1.26
-1.41
-1.60
-1.77
-1.88
-1.91
-1.92
-1.95
-2.01
-2.07
-2.08
-2.00
-1.87
-1.76
-1.75
-1.85
-1.98
-2.00
-1.83
-1.47
-1.02
-0.61
-0.32
-0.17
-0.08
-0.01
0.03
0.02
-0.09
-0.26
-0.43
-0.55
-0.57
-0.54
-0.49
-0.41
-0.26
0.04
0.52
1.16
1.93
2.75
3.57
4.37
5.10
5.69
6.07
6.19
6.01
5.56
4.90
4.10
3.23
2.37
1.56
0.84
0.23
-0.27
-0.66
-1.01
-1.41
-2.05
-3.06
-4.47
-6.07
-7.42
-8.04
-7.56
-5.97
-3.65
-1.28
0.47
1.18
0.83
-0.29
-1.68
-2.83
-3.40
-3.23
-2.40
-1.14
0.15
1.03
1.07
0.03
-2.10
-4.99
-8.10
-10.84
-12.70
-13.50
-13.36
-12.67
-11.93
-11.57
-11.83
-12.74
-14.08
-15.43
-16.35
-16.40
-15.34
-13.20
-10.31
-7.23
-4.59
-2.88
-2.27
-2.54
-3.22
-3.73
-3.64
-2.78
-1.31
0.41
1.99
3.22
4.16
5.11
6.42
8.29
10.61
12.89
14.44
14.68
13.36
10.76
7.57
4.68
2.89
2.71
4.28
7.40
11.57
16.06
20.03
22.70
23.50
22.34
19.58
15.93
12.17
8.90
6.40
4.64
3.47
2.76
2.46
2.55
3.00
3.71
4.53
5.28
5.80
5.94
5.65
4.97
4.04
3.10
2.44
2.34
3.02
4.59
7.06
10.30
14.02
17.77
21.01
23.24
24.10
23.50
21.68
19.04
16.04
13.02
10.10
7.27
4.48
1.73
-0.82
-2.97
-4.54
-5.45
-5.80
-5.76
-5.57
-5.42
-5.48
-5.85
-6.59
-7.67
-9.01
-10.46
-11.81
-12.88
-13.55
-13.79
-13.65
-13.20
-12.53
-11.71
-10.78
-9.83
-8.93
-8.18
-7.64
-7.35
-7.27
-7.37
-7.59
-7.84
-8.08
-8.23
-8.23
-8.00
-7.52
-6.84
-6.05
-5.29
-4.67
-4.24
-3.95
-3.69
-3.33
-2.79
-2.13
-1.47
-1.00
-0.83
-1.00
-1.43
-1.93
-2.32
-2.45
-2.20
-1.55
-0.54
0.65
1.80
2.61
2.82
2.29
1.14
-0.31
-1.63
-2.46
-2.68
-2.39
-1.85
-1.30
-0.85
-0.46
-0.02
0.49
0.98
1.28
1.28
0.99
0.56
0.19
0.04
0.10
0.33
0.61
0.89
1.11
1.25
1.26
1.12
0.87
0.61
0.44
0.40
0.43
0.40
0.20
-0.15
-0.45
-0.46
-0.02
0.82
1.78
2.48
2.65
2.29
1.65
1.09
0.90
1.10
1.46
1.63
1.36
0.65
-0.30
-1.13
-1.57
-1.53
-1.08
-0.37
0.45
1.29
2.02
2.46
2.40
1.69
0.35
-1.30
-2.76
-3.53
-3.30
-2.17
-0.57
0.88
1.63
1.46
0.54
-0.68
-1.67
-2.07
-1.81
-1.07
-0.14
0.73
1.37
1.77
1.94
1.89
1.61
1.12
0.48
-0.20
-0.77
-1.16
-1.34
-1.34
-1.23
-1.07
-0.88
-0.68
-0.46
-0.24
0.01
0.28
0.60
0.90
1.13
1.21
1.09
0.79
0.40
0.02
-0.23
-0.35
-0.41
-0.51
-0.71
-1.02
-1.37
-1.65
-1.79
-1.73
-1.47
-1.01
-0.40
0.28
0.85
1.16
1.06
0.58
-0.13
-0.81
-1.22
-1.28
-1.06
-0.76
-0.58
-0.59
-0.77
-0.97
-1.05
-0.94
-0.67
-0.36
-0.16
-0.16
-0.37
-0.71
-1.06
-1.27
-1.26
-1.02
-0.60
-0.09
0.37
0.70
0.83
0.77
0.59
0.40
0.31
0.36
0.47
0.54
0.44
0.16
-0.18
-0.39
-0.29
0.12
0.70
1.19
1.39
1.22
0.75
0.14
-0.45
-0.91
-1.13
-0.97
-0.34
0.76
2.10
3.30
3.94
3.76
2.83
1.49
0.17
-0.80
-1.35
-1.62
-1.78
-1.90
-1.91
-1.66
-1.12
-0.38
0.29
0.63
0.53
0.05
-0.58
-1.06
-1.14
-0.73
0.18
1.45
2.83
4.06
4.85
5.01
4.55
3.66
2.66
1.81
1.21
0.74
0.20
-0.55
-1.43
-2.19
-2.58
-2.54
-2.21
-1.92
-1.94
-2.30
-2.84
-3.22
-3.21
-2.77
-2.05
-1.30
-0.68
-0.19
0.26
0.77
1.34
1.84
2.06
1.90
1.36
0.61
-0.11
-0.61
-0.81
-0.75
-0.57
-0.41
-0.38
-0.52
-0.81
-1.13
-1.39
-1.54
-1.54
-1.45
-1.28
-1.05
-0.71
-0.26
0.26
0.75
1.08
1.20
1.14
0.99
0.86
0.80
0.75
0.67
0.55
0.45
0.44
0.58
0.78
0.94
0.93
0.72
0.38
0.04
-0.17
-0.21
-0.12
0.00
0.07
0.04
-0.07
-0.18
-0.25
-0.27
-0.25
-0.24
-0.26
-0.32
-0.35
-0.32
-0.19
0.01
0.20
0.29
0.26
0.13
-0.01
-0.11
-0.13
-0.13
-0.18
-0.30
-0.50
-0.73
-0.95
-1.12
-1.25
-1.35
-1.42
-1.45
-1.44
-1.41
-1.40
-1.48
-1.75
-2.28
-3.08
-4.09
-5.13
-6.02
-6.65
-7.07
-7.49
-8.17
-9.15
-10.15
-10.59
-9.86
-7.67
-4.26
-0.38
3.10
5.52
6.70
6.88
6.39
5.51
4.42
3.34
2.63
2.67
3.52
4.75
5.50
4.90
2.64
-0.74
-4.10
-6.31
-6.86
-6.11
-4.98
-4.42
-4.85
-6.08
-7.43
-8.11
-7.47
-5.14
-1.02
4.70
11.47
18.46
24.66
29.15
31.42
31.50
29.85
27.08
23.65
19.75
15.41
10.66
5.83
1.49
-1.70
-3.33
-3.48
-2.69
-1.72
-1.15
-1.15
-1.39
-1.30
-0.37
1.60
4.34
7.18
9.29
9.91
8.59
5.30
0.45
-5.13
-10.29
-13.87
-14.96
-13.24
-9.14
-3.81
1.30
4.97
6.61
6.43
5.13
3.40
1.58
-0.48
-3.10
-6.30
-9.63
-12.28
-13.58
-13.40
-12.27
-11.02
-10.40
-10.59
-11.21
-11.57
-11.04
-9.36
-6.73
-3.66
-0.72
1.65
3.21
3.85
3.55
2.37
0.46
-1.85
-4.13
-5.94
-6.99
-7.31
-7.22
-7.21
-7.55
-8.10
-8.30
-7.51
-5.43
-2.42
0.60
2.54
2.62
0.75
-2.49
-6.09
-9.10
-10.91
-11.42
-10.95
-10.03
-9.07
-8.30
-7.67
-7.02
-6.41
-6.23
-7.00
-8.83
-10.77
-10.96
-7.40
0.66
11.80
22.64
29.35
29.63
24.03
15.69
8.64
5.65
7.03
10.89
14.63
16.48
16.21
14.78
13.25
12.02
10.75
8.90
6.31
3.37
0.81
-0.85
-1.61
-1.85
-1.95
-1.92
-1.38
0.05
2.37
4.96
6.83
7.00
5.05
1.27
-3.45
-7.81
-10.50
-10.54
-7.66
-2.50
3.46
8.38
10.73
9.94
6.57
1.94
-2.52
-5.96
-8.19
-9.42
-9.83
-9.35
-7.84
-5.45
-2.77
-0.70
0.09
-0.50
-1.91
-3.31
-4.02
-3.83
-3.08
-2.34
-2.10
-2.51
-3.38
-4.35
-5.06
-5.28
-4.98
-4.28
-3.38
-2.52
-1.95
-1.86
-2.24
-2.93
-3.59
-3.99
-4.11
-4.24
-4.81
-6.15
-8.23
-10.58
-12.50
-13.37
-12.97
-11.57
-9.79
-8.23
-7.19
-6.56
-5.87
-4.68
-2.82
-0.49
1.87
3.83
5.18
5.94
6.26
6.32
6.29
6.46
7.21
8.91
11.65
14.96
17.85
19.24
18.49
15.78
12.05
8.40
5.60
3.70
2.31
1.10
0.08
-0.35
0.16
1.52
3.18
4.39
4.64
3.95
2.76
1.57
0.66
0.02
-0.46
-0.81
-0.90
-0.57
0.14
0.93
1.37
1.19
0.42
-0.56
-1.24
-1.21
-0.31
1.29
3.23
5.07
6.49
7.34
7.63
7.49
7.06
6.44
5.68
4.85
4.05
3.42
3.10
3.12
3.39
3.83
4.45
5.38
6.72
8.41
10.07
11.07
10.82
9.07
6.06
2.43
-1.10
-4.04
-6.36
-8.30
-10.16
-12.06
-13.87
-15.25
-15.88
-15.59
-14.44
-12.77
-11.01
-9.57
-8.71
-8.42
-8.41
-8.16
-7.18
-5.11
-2.03
1.54
4.78
6.83
7.17
6.14
5.06
6.04
11.30
22.03
37.70
55.99
73.59
87.37
95.61
98.25
96.23
90.81
82.63
71.72
58.26
43.25
28.44
15.37
4.39
-5.68
-16.60
-29.15
-42.15
-52.68
-57.82
-56.33
-49.82
-41.99
-36.40
-34.21
-33.43
-30.42
-22.71
-11.25
-0.30
4.83
1.08
-10.43
-24.95
-36.81
-42.35
-41.57
-37.59
-34.09
-33.02
-33.76
-34.04
-31.79
-26.60
-19.82
-13.57
-9.47
-7.98
-8.34
-9.23
-9.40
-8.22
-5.84
-2.99
-0.64
0.42
-0.05
-1.63
-3.49
-4.82
-5.18
-4.65
-3.69
-2.83
-2.37
-2.30
-2.33
-2.17
-1.69
-0.95
-0.14
0.55
1.03
1.28
1.33
1.27
1.15
1.01
0.87
0.71
0.50
0.25
-0.01
-0.20
-0.21
-0.03
0.26
0.53
0.66
0.62
0.51
0.47
0.63
1.01
1.53
2.05
2.44
2.60
2.52
2.25
1.90
1.58
1.43
1.49
1.80
2.34
3.05
3.77
4.26
4.24
3.48
1.95
-0.15
-2.51
-4.79
-6.83
-8.58
-9.98
-10.88
-11.03
-10.21
-8.40
-5.82
-2.85
0.07
2.54
4.13
4.49
3.36
0.85
-2.48
-5.75
-8.07
-8.99
-8.60
-7.42
-5.94
-4.35
-2.48
-0.09
2.80
5.78
8.22
9.57
9.64
8.55
6.67
4.37
1.95
-0.25
-1.88
-2.65
-2.45
-1.50
-0.33
0.50
0.68
0.33
-0.16
-0.39
-0.25
0.07
0.18
-0.13
-0.80
-1.49
-1.87
-1.83
-1.57
-1.42
-1.62
-2.18
-2.94
-3.71
-4.40
-5.05
-5.66
-6.12
-6.12
-5.38
-3.75
-1.39
1.24
3.59
5.23
6.06
6.25
6.16
6.03
5.85
5.33
4.15
2.23
-0.03
-1.83
-2.35
-1.17
1.46
4.74
7.64
9.46
10.04
9.65
8.72
7.48
5.97
4.14
2.16
0.43
-0.60
-0.70
-0.03
1.05
2.19
3.25
4.33
5.53
6.73
7.56
7.52
6.24
3.75
0.57
-2.41
-4.27
-4.41
-2.82
-0.18
2.48
4.11
4.17
2.69
0.11
-3.01
-6.35
-9.77
-13.18
-16.31
-18.63
-19.62
-19.01
-16.97
-14.01
-10.73
-7.55
-4.61
-1.90
0.62
2.93
4.96
6.69
8.16
9.38
10.28
10.59
10.03
8.48
6.16
3.62
1.58
0.57
0.67
1.42
2.03
1.80
0.40
-1.93
-4.53
-6.64
-7.70
-7.59
-6.53
-4.98
-3.44
-2.23
-1.44
-0.97
-0.61
-0.16
0.38
0.94
1.37
1.58
1.56
1.35
1.03
0.63
0.19
-0.26
-0.62
-0.75
-0.55
0.00
0.81
1.69
2.46
2.96
3.10
2.89
2.43
1.84
1.30
0.93
0.80
0.85
1.02
1.19
1.33
1.42
1.45
1.39
1.22
0.91
0.50
0.09
-0.18
-0.20
0.03
0.42
0.81
1.06
1.09
0.93
0.68
0.52
0.53
0.72
1.02
1.27
1.33
1.13
0.71
0.15
-0.45
-0.98
-1.43
-1.80
-2.09
-2.31
-2.43
-2.42
-2.23
-1.86
-1.33
-0.70
-0.10
0.35
0.56
0.52
0.32
0.10
-0.01
0.06
0.30
0.60
0.86
0.99
1.00
0.92
0.84
0.82
0.94
1.24
1.71
2.20
2.45
2.15
1.12
-0.63
-2.82
-5.02
-6.84
-8.08
-8.74
-8.98
-9.01
-9.01
-9.10
-9.34
-9.70
-9.92
-9.48
-7.80
-4.52
0.13
5.28
9.69
12.30
12.68
11.22
8.88
6.75
5.61
5.76
7.02
8.95
11.03
12.86
14.16
14.86
15.04
14.87
14.45
13.80
12.86
11.57
9.97
8.20
6.34
4.37
2.19
-0.25
-2.81
-5.17
-6.96
-8.01
-8.45
-8.65
-9.03
-9.81
-10.94
-12.12
-13.02
-13.38
-13.18
-12.59
-11.88
-11.33
-11.11
-11.22
-11.53
-11.81
-11.90
-11.68
-11.16
-10.43
-9.63
-8.93
-8.46
-8.29
-8.33
-8.40
-8.25
-7.69
-6.71
-5.53
-4.41
-3.59
-3.14
-2.95
-2.89
-2.88
-2.89
-2.88
-2.73
-2.21
-1.10
0.64
2.79
4.87
6.31
6.72
6.02
4.52
2.86
1.74
1.67
2.81
4.91
7.42
9.72
11.38
12.27
12.50
12.35
12.10
11.95
12.10
12.68
13.66
14.59
14.56
12.40
7.27
-0.76
-10.45
-19.77
-26.82
-30.77
-32.25
-33.04
-35.05
-39.25
-45.27
-51.58
-56.42
-58.73
-58.50
-56.62
-54.27
-52.26
-50.79
-49.73
-48.90
-48.13
-46.90
-43.71
-36.12
-21.59
0.94
29.68
59.85
85.24
100.65
104.15
97.66
85.62
72.62
61.36
52.14
43.86
35.59
27.63
21.28
17.83
17.44
18.87
20.13
19.53
16.48
11.72
6.75
2.99
1.14
1.02
1.84
2.67
2.91
2.47
1.70
1.10
1.05
1.63
2.58
3.46
3.85
3.55
2.67
1.54
0.61
0.21
0.46
1.18
2.05
2.70
2.83
2.37
1.40
0.13
-1.16
-2.25
-2.97
-3.28
-3.26
-3.05
-2.81
-2.61
-2.46
-2.30
-2.09
-1.81
-1.53
-1.30
-1.17
-1.13
-1.12
-1.08
-0.95
-0.75
-0.52
-0.32
-0.20
-0.17
-0.20
-0.28
-0.38
-0.51
-0.65
-0.79
-0.93
-0.99
-0.94
-0.73
-0.37
0.07
0.46
0.66
0.60
0.28
-0.18
-0.59
-0.79
-0.71
-0.39
0.04
0.44
0.71
0.86
0.92
0.96
0.99
1.00
0.93
0.78
0.55
0.31
0.10
-0.09
-0.29
-0.53
-0.78
-0.95
-0.90
-0.58
-0.07
0.46
0.78
0.76
0.46
0.03
-0.31
-0.44
-0.34
-0.09
0.19
0.44
0.65
0.83
0.99
1.05
0.98
0.74
0.38
0.01
-0.27
-0.44
-0.49
-0.48
-0.47
-0.46
-0.44
-0.37
-0.29
-0.21
-0.19
-0.25
-0.34
-0.40
-0.39
-0.28
-0.11
0.07
0.22
0.27
0.22
0.06
-0.16
-0.40
-0.58
-0.66
-0.59
-0.40
-0.13
0.18
0.48
0.75
0.94
1.01
0.92
0.68
0.35
0.02
-0.23
-0.35
-0.38
-0.40
-0.45
-0.53
-0.60
-0.61
-0.55
-0.48
-0.44
-0.46
-0.48
-0.44
-0.30
-0.09
0.09
0.17
0.08
-0.15
-0.44
-0.71
-0.91
-1.01
-1.05
-1.05
-1.07
-1.10
-1.15
-1.22
-1.26
-1.24
-1.10
-0.81
-0.40
0.07
0.53
0.84
0.96
0.86
0.59
0.25
-0.09
-0.39
-0.68
-1.02
-1.46
-1.98
-2.43
-2.64
-2.45
-1.86
-1.03
-0.20
0.44
0.83
1.06
1.31
1.68
2.15
2.58
2.81
2.79
2.57
2.26
1.98
1.74
1.51
1.25
0.98
0.71
0.48
0.27
0.04
-0.24
-0.52
-0.67
-0.55
-0.11
0.54
1.20
1.65
1.79
1.63
1.31
0.95
0.63
0.36
0.12
-0.08
-0.23
-0.31
-0.31
-0.27
-0.24
-0.26
-0.35
-0.49
-0.62
-0.69
-0.62
-0.39
0.02
0.51
0.97
1.28
1.35
1.19
0.83
0.39
-0.06
-0.45
-0.75
-0.96
-1.05
-1.03
-0.91
-0.73
-0.55
-0.41
-0.35
-0.36
-0.39
-0.37
-0.26
-0.02
0.33
0.73
1.05
1.19
1.09
0.77
0.34
-0.04
-0.27
-0.28
-0.12
0.09
0.25
0.30
0.24
0.08
-0.12
-0.33
-0.55
-0.76
-0.93
-1.03
-1.07
-1.04
-1.01
-1.02
-1.12
-1.28
-1.44
-1.51
-1.41
-1.12
-0.69
-0.25
0.12
0.32
0.36
0.29
0.20
0.17
0.28
0.51
0.80
1.08
1.23
1.21
1.04
0.79
0.53
0.33
0.18
0.09
0.04
0.04
0.11
0.25
0.40
0.49
0.46
0.29
0.08
-0.08
-0.10
0.03
0.26
0.48
0.61
0.62
0.49
0.26
-0.04
-0.36
-0.65
-0.83
-0.87
-0.78
-0.63
-0.50
-0.42
-0.40
-0.39
-0.33
-0.22
-0.10
-0.02
-0.00
-0.03
-0.08
-0.09
-0.08
-0.06
-0.07
-0.07
-0.01
0.16
0.44
0.75
1.00
1.08
0.97
0.71
0.41
0.18
0.08
0.09
0.14
0.15
0.08
-0.07
-0.26
-0.39
-0.40
-0.31
-0.17
-0.06
-0.02
-0.03
-0.01
0.13
0.40
0.73
0.95
0.95
0.68
0.21
-0.29
-0.62
-0.67
-0.44
-0.04
0.38
0.70
0.89
0.92
0.83
0.63
0.33
-0.04
-0.46
-0.87
-1.17
-1.30
-1.20
-0.89
-0.44
0.04
0.41
0.59
0.54
0.30
-0.02
-0.32
-0.53
-0.65
-0.67
-0.63
-0.52
-0.33
-0.08
0.16
0.31
0.32
0.20
0.02
-0.11
-0.13
-0.06
0.03
0.03
-0.11
-0.37
-0.65
-0.83
-0.82
-0.62
-0.31
0.02
0.27
0.41
0.46
0.48
0.50
0.54
0.58
0.56
0.45
0.27
0.06
-0.15
-0.31
-0.38
-0.34
-0.20
0.05
0.34
0.61
0.75
0.72
0.49
0.14
-0.22
-0.48
-0.57
-0.51
-0.39
-0.30
-0.29
-0.38
-0.48
-0.49
-0.38
-0.15
0.11
0.27
0.30
0.21
0.08
-0.01
-0.00
0.04
0.06
-0.02
-0.19
-0.38
-0.49
-0.48
-0.37
-0.25
-0.20
-0.24
-0.33
-0.40
-0.37
-0.22
0.03
0.31
0.52
0.55
0.36
-0.03
-0.51
-0.96
-1.25
-1.33
-1.19
-0.89
-0.46
0.06
0.64
1.21
1.65
1.83
1.66
1.19
0.59
0.06
-0.22
-0.26
-0.18
-0.21
-0.49
-1.01
-1.62
-2.09
-2.27
-2.13
-1.80
-1.50
-1.37
-1.44
-1.64
-1.81
-1.85
-1.73
-1.54
-1.43
-1.49
-1.75
-2.14
-2.51
-2.77
-2.88
-2.93
-3.03
-3.30
-3.75
-4.30
-4.81
-5.12
-5.16
-4.95
-4.58
-4.22
-4.03
-4.11
-4.43
-4.78
-4.77
-3.82
-1.26
3.45
10.51
19.53
29.50
38.91
46.18
50.02
49.85
45.84
38.77
29.77
20.02
10.53
2.12
-4.68
-9.59
-12.66
-14.20
-14.70
-14.67
-14.49
-14.35
-14.26
-14.18
-14.03
-13.80
-13.47
-13.09
-12.68
-12.33
-12.07
-11.95
-11.87
-11.67
-11.18
-10.33
-9.26
-8.36
-8.05
-8.64
-10.09
-11.98
-13.67
-14.54
-14.27
-12.98
-11.21
-9.69
-9.00
-9.31
-10.26
-11.10
-11.04
-9.59
-6.74
-2.98
0.99
4.61
7.80
11.10
15.45
21.82
30.71
41.84
54.05
65.64
74.87
80.44
81.79
79.20
73.50
65.95
58.03
51.25
46.67
44.40
43.13
40.54
34.22
23.02
7.99
-7.84
-20.68
-27.75
-28.58
-25.11
-20.50
-17.42
-16.81
-17.75
-18.42
-17.44
-14.66
-10.99
-7.58
-4.86
-2.46
0.27
3.63
7.10
9.74
10.74
9.65
5.90
-1.75
-15.24
-36.23
-64.68
-97.95
-131.15
-158.77
-176.71
-183.36
-179.24
-165.77
-144.15
-115.32
-80.83
-43.70
-8.29
20.91
40.95
51.41
54.31
52.72
49.30
45.36
40.68
34.13
24.66
12.30
-1.31
-13.16
-19.89
-19.15
-10.86
2.62
17.22
28.96
35.45
36.67
34.40
30.91
27.74
25.14
22.62
19.73
16.63
14.00
12.38
11.68
11.11
9.66
6.69
2.33
-2.48
-6.57
-9.15
-10.17
-10.34
-10.73
-12.24
-15.18
-19.19
-23.48
-27.26
-30.02
-31.75
-32.76
-33.61
-35.00
-37.68
-42.02
-47.38
-51.69
-51.74
-44.48
-28.69
-6.16
18.61
40.05
53.90
58.91
56.97
51.64
46.18
42.17
39.40
36.85
33.90
30.82
28.46
27.50
27.88
28.80
29.24
28.41
26.20
23.17
20.19
18.07
17.14
17.22
17.63
17.61
16.59
14.55
11.92
9.43
7.70
6.97
7.01
7.25
7.09
6.16
4.51
2.51
0.65
-0.70
-1.42
-1.67
-1.72
-1.85
-2.20
-2.74
-3.34
-3.86
-4.19
-4.36
-4.41
-4.38
-4.30
-4.09
-3.69
-3.11
-2.42
-1.77
-1.31
-1.11
-1.10
-1.13
-1.06
-0.79
-0.36
0.09
0.47
0.70
0.82
0.90
0.97
1.07
1.15
1.20
1.20
1.16
1.06
0.91
0.70
0.44
0.15
-0.12
-0.33
-0.46
-0.51
-0.49
-0.41
-0.31
-0.21
-0.11
-0.01
0.11
0.31
0.57
0.87
1.09
1.17
1.07
0.82
0.48
0.13
-0.21
-0.52
-0.78
-0.94
-0.96
-0.86
-0.69
-0.54
-0.49
-0.53
-0.60
-0.61
-0.51
-0.35
-0.22
-0.24
-0.46
-0.83
-1.26
-1.62
-1.84
-1.92
-1.91
-1.87
-1.87
-1.90
-1.91
-1.85
-1.69
-1.44
-1.15
-0.90
-0.72
-0.58
-0.41
-0.12
0.31
0.83
1.34
1.75
1.99
2.08
2.07
1.97
1.83
1.64
1.44
1.26
1.13
1.05
0.94
0.72
0.35
-0.11
-0.56
-0.84
-0.86
-0.63
-0.24
0.18
0.53
0.76
0.89
0.94
0.92
0.79
0.56
0.23
-0.14
-0.46
-0.64
-0.65
-0.53
-0.38
-0.28
-0.31
-0.43
-0.58
-0.66
-0.64
-0.53
-0.44
-0.46
-0.63
-0.90
-1.17
-1.32
-1.31
-1.17
-1.02
-0.93
-0.92
-0.94
-0.91
-0.80
-0.61
-0.42
-0.30
-0.24
-0.20
-0.14
-0.03
0.06
0.03
-0.20
-0.67
-1.26
-1.84
-2.25
-2.40
-2.30
-2.04
-1.70
-1.37
-1.10
-0.96
-1.00
-1.30
-1.86
-2.63
-3.45
-4.15
-4.62
-4.83
-4.88
-4.91
-4.99
-5.13
-5.25
-5.31
-5.30
-5.21
-4.93
-4.26
-2.92
-0.73
2.24
5.60
8.73
11.06
12.28
12.40
11.69
10.51
9.12
7.65
6.16
4.73
3.49
2.57
2.01
1.73
1.55
1.30
0.89
0.40
-0.06
-0.32
-0.30
-0.02
0.41
0.88
1.29
1.59
1.80
1.95
2.08
2.25
2.50
2.83
3.22
3.54
3.64
3.39
2.78
1.97
1.25
0.94
1.19
1.87
2.65
3.12
3.00
2.30
1.24
0.22
-0.41
-0.49
-0.05
0.66
1.32
1.60
1.24
0.14
-1.60
-3.67
-5.49
-6.41
-5.88
-3.79
-0.60
2.72
5.05
5.62
4.29
1.64
-1.36
-3.80
-5.17
-5.46
-4.96
-4.04
-2.94
-1.74
-0.53
0.58
1.37
1.67
1.42
0.73
-0.13
-0.80
-0.98
-0.54
0.44
1.70
2.87
3.63
3.83
3.47
2.70
1.68
0.61
-0.38
-1.18
-1.76
-2.20
-2.62
-3.20
-3.99
-4.90
-5.72
-6.22
-6.29
-5.97
-5.42
-4.81
-4.24
-3.70
-3.15
-2.56
-1.96
-1.43
-1.06
-0.89
-0.93
-1.14
-1.42
-1.63
-1.70
-1.54
-1.18
-0.72
-0.28
0.02
0.11
0.05
-0.04
0.01
0.35
1.03
1.94
2.90
3.71
4.28
4.63
4.90
5.22
5.60
5.95
6.08
5.86
5.25
4.40
3.48
2.62
1.86
1.16
0.42
-0.40
-1.24
-2.03
-2.68
-3.15
-3.47
-3.68
-3.80
-3.84
-3.79
-3.69
-3.64
-3.74
-4.05
-4.53
-5.02
-5.32
-5.30
-4.94
-4.39
-3.88
-3.59
-3.60
-3.86
-4.25
-4.65
-5.01
-5.33
-5.61
-5.86
-6.07
-6.23
-6.33
-6.37
-6.29
-6.07
-5.66
-5.05
-4.32
-3.57
-2.91
-2.39
-2.02
-1.76
-1.58
-1.48
-1.45
-1.46
-1.39
-1.07
-0.29
1.06
2.92
5.06
7.10
8.68
9.63
10.06
10.38
11.08
12.57
14.92
17.88
20.91
23.48
25.32
26.42
27.19
28.11
29.62
31.88
34.88
38.39
41.99
44.83
45.51
42.32
33.90
20.11
2.54
-15.72
-31.08
-40.95
-44.65
-43.49
-39.85
-35.96
-32.97
-30.93
-29.41
-28.20
-27.60
-28.11
-29.86
-32.22
-34.03
-34.13
-31.85
-27.48
-22.02
-16.75
-12.69
-10.24
-9.07
-8.45
-7.57
-5.93
-3.52
-0.74
1.85
3.79
4.92
5.38
5.50
5.64
6.00
6.62
7.45
8.37
9.33
10.32
11.34
12.35
13.30
14.12
14.78
15.29
15.69
15.99
16.19
16.23
16.05
15.70
15.30
14.97
14.82
14.82
14.89
14.96
15.08
15.45
16.37
18.12
20.81
24.26
27.95
31.17
33.10
33.13
30.95
26.62
20.56
13.37
5.80
-1.41
-7.58
-12.17
-14.91
-15.85
-15.40
-14.22
-13.02
-12.37
-12.56
-13.50
-14.84
-16.07
-16.77
-16.74
-16.08
-15.15
-14.36
-13.99
-14.09
-14.47
-14.83
-14.92
-14.61
-13.90
-12.87
-11.58
-10.09
-8.49
-6.93
-5.61
-4.71
-4.34
-4.49
-5.03
-5.69
-6.22
-6.38
-6.07
-5.35
-4.40
-3.45
-2.71
-2.24
-1.99
-1.80
-1.53
-1.10
-0.54
0.04
0.48
0.70
0.68
0.52
0.38
0.38
0.57
0.91
1.29
1.61
1.80
1.83
1.72
1.53
1.27
1.00
0.73
0.51
0.35
0.23
0.12
-0.01
-0.13
-0.19
-0.14
0.02
0.27
0.55
0.81
1.04
1.25
1.42
1.50
1.41
1.09
0.57
-0.05
-0.62
-0.99
-1.10
-0.96
-0.63
-0.22
0.18
0.47
0.58
0.50
0.26
-0.03
-0.27
-0.41
-0.46
-0.50
-0.60
-0.78
-1.02
-1.26
-1.42
-1.45
-1.40
-1.30
-1.21
-1.15
-1.13
-1.16
-1.25
-1.46
-1.79
-2.21
-2.62
-2.90
-2.94
-2.71
-2.28
-1.81
-1.45
-1.31
-1.36
-1.49
-1.53
-1.39
-1.05
-0.59
-0.18
0.05
0.01
-0.25
-0.64
-1.05
-1.39
-1.61
-1.67
-1.54
-1.18
-0.61
0.14
0.93
1.63
2.10
2.28
2.19
1.90
1.52
1.11
0.69
0.23
-0.32
-0.96
-1.64
-2.29
-2.85
-3.30
-3.68
-3.97
-4.16
-4.17
-3.97
-3.59
-3.17
-2.87
-2.77
-2.85
-2.98
-3.03
-2.96
-2.87
-2.91
-3.16
-3.63
-4.21
-4.75
-5.10
-5.16
-4.80
-3.98
-2.77
-1.39
-0.22
0.45
0.46
-0.11
-1.06
-2.21
-3.48
-4.86
-6.29
-7.53
-8.21
-8.00
-6.80
-4.89
-2.84
-1.24
-0.48
-0.56
-1.27
-2.29
-3.46
-4.78
-6.36
-8.24
-10.28
-12.23
-13.83
-14.92
-15.43
-15.32
-14.44
-12.45
-9.04
-4.06
2.24
9.25
16.17
22.40
27.73
32.38
36.84
41.45
46.22
50.72
54.37
56.65
57.38
56.73
54.92
52.07
48.03
42.59
35.63
27.29
17.88
7.70
-3.02
-14.04
-24.85
-34.57
-42.08
-46.49
-47.51
-45.63
-41.86
-37.31
-32.68
-28.21
-23.90
-20.01
-17.25
-16.51
-18.27
-21.91
-25.68
-27.21
-24.47
-16.87
-5.54
7.05
18.22
26.17
30.51
32.07
32.09
31.52
30.63
29.19
26.94
23.91
20.52
17.28
14.65
12.80
11.62
10.82
10.10
9.29
8.38
7.48
6.70
5.98
5.01
3.22
-0.00
-5.01
-11.61
-19.03
-26.05
-31.46
-34.41
-34.73
-33.00
-30.33
-28.02
-27.13
-28.09
-30.54
-33.44
-35.50
-35.68
-33.65
-29.99
-25.94
-22.86
-21.84
-23.32
-26.82
-30.86
-32.93
-30.12
-20.05
-2.07
21.93
47.73
69.95
83.95
87.42
81.03
67.73
51.47
35.70
22.61
13.09
7.13
4.31
3.95
5.15
6.74
7.55
6.67
3.68
-1.13
-6.83
-12.19
-16.07
-17.83
-17.52
-15.85
-13.81
-12.34
-11.88
-12.24
-12.80
-12.77
-11.61
-9.33
-6.47
-3.89
-2.45
-2.57
-4.13
-6.48
-8.64
-9.62
-8.66
-5.49
-0.32
6.09
12.69
18.41
22.48
24.67
25.26
24.90
24.15
23.32
22.29
20.74
18.36
15.12
11.35
7.64
4.61
2.75
2.22
2.87
4.40
6.45
8.72
11.06
13.39
15.64
17.73
19.61
21.19
22.31
22.60
21.55
18.67
13.87
7.62
0.96
-4.90
-9.13
-11.64
-13.11
-14.52
-16.64
-19.58
-22.85
-25.77
-27.84
-29.04
-29.70
-30.16
-30.52
-30.52
-29.72
-27.75
-24.57
-20.59
-16.53
-13.18
-11.09
-10.40
-10.81
-11.80
-12.80
-13.48
-13.68
-13.28
-12.09
-9.88
-6.55
-2.28
2.45
7.11
11.34
15.10
18.48
21.49
23.76
24.66
23.64
20.58
15.97
10.72
5.74
1.57
-1.69
-4.22
-6.14
-7.38
-7.66
-6.77
-4.72
-1.84
1.30
4.07
6.06
7.11
7.33
6.99
6.33
5.57
4.77
3.96
3.15
2.38
1.67
1.02
0.40
-0.28
-1.09
-2.05
-3.05
-3.94
-4.54
-4.76
-4.56
-3.99
-3.14
-2.09
-0.86
0.48
1.88
3.23
4.47
5.53
6.42
7.21
7.94
8.66
9.32
9.83
10.01
9.66
8.61
6.81
4.42
1.83
-0.45
-1.93
-2.36
-1.77
-0.50
1.00
2.31
3.22
3.68
3.74
3.38
2.51
1.03
-1.05
-3.43
-5.58
-6.92
-7.11
-6.21
-4.68
-3.22
-2.40
-2.43
-3.13
-4.07
-4.85
-5.30
-5.52
-5.70
-5.96
-6.16
-6.03
-5.31
-4.01
-2.41
-0.97
-0.08
0.15
-0.10
-0.47
-0.63
-0.43
0.10
0.79
1.49
2.07
2.43
2.54
2.40
2.12
1.90
1.96
2.44
3.27
4.27
5.22
6.01
6.66
7.22
7.67
7.77
7.17
5.60
3.02
-0.26
-3.67
-6.62
-8.71
-9.82
-10.14
-9.96
-9.56
-9.11
-8.65
-8.17
-7.65
-7.15
-6.75
-6.52
-6.48
-6.54
-6.60
-6.55
-6.36
-6.07
-5.74
-5.42
-5.06
-4.59
-3.96
-3.16
-2.30
-1.49
-0.83
-0.31
0.14
0.60
1.12
1.67
2.19
2.58
2.75
2.68
2.36
1.83
1.17
0.48
-0.18
-0.73
-1.16
-1.48
-1.66
-1.68
-1.55
-1.30
-1.02
-0.83
-0.78
-0.88
-1.03
-1.15
-1.19
-1.14
-1.06
-0.94
-0.71
-0.29
0.40
1.33
2.33
3.16
3.59
3.51
2.96
2.13
1.30
0.72
0.55
0.81
1.36
1.98
2.39
2.43
2.05
1.36
0.56
-0.16
-0.65
-0.83
-0.65
-0.12
0.70
1.61
2.33
2.54
2.04
0.84
-0.77
-2.37
-3.56
-4.06
-3.84
-3.08
-2.06
-1.14
-0.63
-0.74
-1.55
-2.92
-4.60
-6.25
-7.60
-8.49
-8.91
-8.93
-8.69
-8.33
-8.03
-7.93
-8.09
-8.45
-8.77
-8.77
-8.22
-7.11
-5.63
-4.13
-2.95
-2.23
-1.93
-1.90
-1.93
-1.90
-1.75
-1.43
-0.87
-0.08
0.84
1.66
2.14
2.14
1.77
1.40
1.48
2.33
3.91
5.82
7.54
8.60
8.88
8.52
7.85
7.12
6.47
5.93
5.54
5.42
5.66
6.23
6.96
7.53
7.71
7.48
7.00
6.48
5.98
5.38
4.43
3.01
1.20
-0.69
-2.26
-3.24
-3.45
-2.88
-1.54
0.47
2.95
5.46
7.41
8.14
7.28
4.82
1.25
-2.65
-6.05
-8.35
-9.31
-9.14
-8.26
-7.19
-6.22
-5.42
-4.63
-3.65
-2.37
-0.91
0.45
1.42
1.84
1.75
1.39
1.01
0.82
0.86
1.11
1.45
1.82
2.19
2.54
2.83
3.00
2.98
2.72
2.24
1.63
1.00
0.44
-0.01
-0.35
-0.58
-0.74
-0.91
-1.21
-1.77
-2.65
-3.80
-5.01
-6.04
-6.67
-6.83
-6.60
-6.15
-5.69
-5.34
-5.13
-4.97
-4.75
-4.34
-3.62
-2.57
-1.26
0.14
1.41
2.38
3.01
3.37
3.62
3.92
4.32
4.81
5.34
5.85
6.38
6.92
7.47
7.92
8.14
8.04
7.61
6.97
6.27
5.63
5.10
4.67
4.29
3.93
3.60
3.30
2.99
2.55
1.92
1.09
0.19
-0.51
-0.81
-0.63
-0.09
0.52
0.91
0.89
0.46
-0.26
-1.07
-1.82
-2.47
-3.03
-3.49
-3.82
-3.93
-3.77
-3.36
-2.81
-2.28
-1.90
-1.70
-1.63
-1.56
-1.41
-1.16
-0.91
-0.74
-0.68
-0.67
-0.57
-0.26
0.27
0.90
1.46
1.83
1.93
1.80
1.51
1.13
0.68
0.18
-0.33
-0.76
-1.02
-1.05
-0.85
-0.48
-0.05
0.34
0.60
0.70
0.66
0.52
0.39
0.35
0.47
0.74
1.03
1.23
1.22
0.95
0.50
-0.02
-0.45
-0.71
-0.75
-0.62
-0.36
-0.05
0.27
0.56
0.77
0.87
0.80
0.59
0.28
-0.02
-0.25
-0.37
-0.40
-0.41
-0.41
-0.39
-0.34
-0.21
-0.03
0.20
0.43
0.69
1.01
1.38
1.73
1.98
2.02
1.82
1.46
1.09
0.85
0.83
0.98
1.24
1.50
1.72
1.89
2.03
2.10
2.00
1.61
0.83
-0.32
-1.71
-3.16
-4.48
-5.51
-6.17
-6.39
-6.12
-5.38
-4.22
-2.81
-1.37
-0.11
0.79
1.24
1.24
0.82
0.11
-0.76
-1.59
-2.25
-2.65
-2.83
-2.89
-2.94
-3.02
-3.14
-3.22
-3.23
-3.13
-2.92
-2.62
-2.23
-1.72
-1.09
-0.39
0.31
0.91
1.34
1.58
1.68
1.69
1.72
1.78
1.87
1.87
1.68
1.19
0.45
-0.40
-1.13
-1.57
-1.66
-1.52
-1.35
-1.37
-1.71
-2.35
-3.16
-3.99
-4.73
-5.35
-5.89
-6.43
-7.05
-7.82
-8.79
-9.97
-11.37
-12.93
-14.60
-16.28
-17.92
-19.48
-20.99
-22.54
-24.32
-26.49
-29.20
-32.48
-36.31
-40.57
-45.12
-49.84
-54.66
-59.53
-64.41
-69.29
-74.21
-79.20
-84.31
-89.59
-95.03
-100.62
-106.39
-112.51
-119.19
-126.72
-135.20
-144.35
-153.43
-161.33
-167.06
-170.17
-170.83
-169.43
-166.00
-159.64
-148.58
-130.92
-105.50
-72.43
-32.88
11.47
59.01
108.04
156.26
200.35
236.29
260.58
271.66
270.78
261.62
248.82
236.33
226.28
218.94
213.52
209.22
205.76
203.49
202.88
204.08
206.77
210.23
213.84
217.44
221.72
227.82
236.56
247.46
258.12
264.55
262.44
248.74
222.87
186.76
143.63
96.48
47.13
-3.48
-54.08
-102.04
-143.26
-173.53
-190.36
-194.33
-188.92
-178.97
-168.63
-159.91
-152.66
-145.50
-137.30
-128.08
-119.03
-111.75
-107.25
-105.29
-104.42
-102.64
-98.26
-90.74
-80.92
-70.59
-61.69
-55.39
-51.65
-49.30
-46.75
-42.82
-37.30
-30.99
-25.21
-21.08
-19.02
-18.71
-19.34
-20.10
-20.44
-19.95
-18.17
-14.69
-9.76
-5.10
-4.13
-11.02
-28.72
-57.02
-91.83
-126.31
-153.54
-169.28
-173.36
-169.14
-161.71
-155.71
-154.00
-157.39
-164.77
-173.51
-179.75
-178.84
-166.30
-139.25
-97.83
-45.76
10.18
61.78
101.72
125.59
132.98
127.39
114.74
101.16
91.08
85.97
84.58
84.22
82.32
77.49
69.70
60.08
50.27
42.01
36.67
34.92
36.47
40.15
44.27
47.25
48.22
47.14
44.50
40.70
35.60
28.55
18.77
6.03
-8.75
-23.09
-33.24
-35.12
-25.78
-4.86
24.75
57.46
87.07
108.99
121.91
127.66
129.74
131.14
132.97
134.45
134.13
131.34
126.94
122.99
121.76
124.80
132.37
143.31
155.14
164.32
166.75
158.49
136.93
101.93
56.47
6.27
-41.71
-81.23
-108.50
-122.84
-126.20
-121.85
-113.06
-102.33
-91.28
-81.08
-72.64
-66.66
-63.27
-61.84
-60.97
-59.10
-55.16
-49.10
-41.89
-35.04
-29.87
-26.90
-25.65
-24.91
-23.38
-20.32
-15.82
-10.71
-6.04
-2.54
-0.24
1.51
3.58
6.59
10.53
14.82
18.60
21.30
22.94
24.23
26.18
29.59
34.61
40.53
46.19
50.40
52.64
53.22
53.18
53.84
56.37
61.56
69.54
79.57
89.55
95.93
94.31
80.97
54.77
18.38
-22.03
-58.88
-85.92
-100.49
-103.96
-100.24
-93.55
-86.56
-79.99
-73.42
-66.58
-59.98
-54.74
-51.70
-50.81
-51.00
-50.66
-48.59
-44.52
-39.17
-33.90
-29.95
-27.98
-27.75
-28.33
-28.55
-27.50
-24.93
-21.28
-17.48
-14.46
-12.74
-12.29
-12.59
-12.90
-12.62
-11.54
-9.87
-8.08
-6.66
-5.90
-5.74
-5.88
-5.89
-5.45
-4.49
-3.17
-1.81
-0.71
-0.04
0.18
-0.06
-0.78
-1.97
-3.41
-4.68
-5.15
-4.29
-1.97
1.42
5.10
8.22
10.21
11.02
10.97
10.51
9.98
9.45
8.84
8.05
7.11
6.16
5.38
4.85
4.51
4.27
3.98
3.56
3.01
2.40
1.85
1.43
1.18
1.06
1.00
0.89
0.65
0.20
-0.43
-1.14
-1.80
-2.27
-2.49
-2.50
-2.44
-2.48
-2.74
-3.22
-3.85
-4.48
-4.96
-5.21
-5.27
-5.27
-5.36
-5.67
-6.22
-6.96
-7.75
-8.49
-9.08
-9.47
-9.66
-9.69
-9.65
-9.71
-10.01
-10.67
-11.66
-12.85
-13.97
-14.83
-15.34
-15.64
-15.97
-16.60
-17.63
-19.02
-20.51
-21.89
-22.90
-23.43
-23.42
-22.76
-21.36
-19.27
-16.83
-14.51
-12.44
-9.96
-5.48
2.87
16.27
34.20
54.20
72.65
86.15
92.90
93.30
89.50
84.31
80.22
78.85
81.03
86.78
95.01
102.96
105.97
98.46
76.13
38.31
-10.90
-63.18
-109.06
-141.34
-157.68
-160.95
-157.37
-153.64
-154.29
-160.47
-170.27
-179.75
-184.28
-179.47
-162.14
-131.25
-88.62
-39.05
10.58
53.25
83.85
100.50
104.66
100.07
91.08
81.21
72.58
66.00
61.47
58.66
57.10
56.17
55.05
52.99
49.60
45.04
40.02
35.47
32.15
30.25
29.38
28.76
27.57
25.34
22.10
18.33
14.77
12.03
10.42
9.83
9.85
9.89
9.43
8.21
6.27
3.99
1.87
0.39
-0.26
-0.18
0.23
0.54
0.44
-0.14
-0.98
-1.73
-2.09
-1.92
-1.25
-0.23
0.92
1.99
2.86
3.45
3.75
3.80
3.67
3.45
3.25
3.13
3.10
3.13
3.13
3.05
2.92
2.79
2.76
2.86
3.08
3.35
3.59
3.77
3.89
4.01
4.22
4.58
5.11
5.82
6.61
7.44
8.27
9.17
10.33
11.95
14.13
16.78
19.57
22.05
23.89
25.01
25.72
26.58
28.23
31.06
35.03
39.69
44.29
48.14
50.89
52.78
54.58
57.27
61.58
67.54
74.23
80.12
83.64
83.95
81.22
76.43
70.76
65.11
60.00
55.76
52.48
49.60
45.34
36.68
20.41
-5.07
-38.19
-73.98
-105.77
-127.85
-137.87
-137.46
-130.80
-122.28
-114.47
-107.67
-100.85
-93.05
-84.25
-75.32
-67.29
-60.61
-55.01
-49.75
-44.22
-38.37
-32.73
-28.20
-25.48
-24.74
-25.47
-26.63
-27.09
-26.12
-23.70
-20.57
-17.83
-16.50
-17.07
-19.34
-22.48
-25.51
-27.63
-28.62
-28.90
-29.29
-30.65
-33.48
-37.67
-42.54
-47.15
-50.72
-53.00
-54.32
-55.50
-57.42
-60.72
-65.54
-71.42
-77.20
-81.09
-80.84
-74.36
-60.39
-39.09
-12.26
17.04
45.32
69.59
87.97
99.85
105.60
106.22
102.95
97.17
90.25
83.46
77.79
73.72
71.20
69.67
68.41
66.71
64.15
60.72
56.85
53.12
50.08
48.00
46.77
46.04
45.36
44.46
43.41
42.59
42.53
43.67
46.18
49.84
54.15
58.60
62.78
66.53
69.93
73.19
76.50
80.16
84.46
89.48
94.51
97.62
95.89
86.42
68.01
42.37
14.19
-10.46
-26.48
-31.77
-27.89
-18.75
-8.37
0.99
9.30
17.53
26.16
34.30
40.16
42.37
40.79
36.13
28.65
17.20
-0.50
-26.25
-59.24
-95.24
-127.85
-151.21
-162.70
-163.82
-158.84
-152.15
-146.08
-140.43
-133.88
-125.72
-116.86
-109.44
-105.50
-105.76
-109.37
-114.30
-118.05
-118.09
-112.05
-98.22
-76.31
-48.10
-17.57
10.22
30.91
42.54
46.06
44.43
40.84
37.23
33.89
30.29
26.26
22.58
20.68
21.62
25.27
30.14
34.01
35.04
32.52
27.10
20.50
14.67
11.06
10.17
11.46
13.75
15.74
16.61
16.22
15.04
13.78
12.90
12.38
11.80
10.58
8.46
5.63
2.70
0.40
-0.80
-0.89
-0.32
0.35
0.58
0.21
-0.51
-1.05
-0.90
0.43
3.25
7.67
13.32
19.11
23.36
24.27
20.80
13.39
3.99
-4.69
-10.44
-12.53
-11.92
-10.42
-9.55
-9.77
-10.44
-10.56
-9.63
-7.94
-6.37
-5.67
-5.98
-6.81
-7.46
-7.30
-6.25
-4.66
-3.10
-2.07
-1.81
-2.16
-2.76
-3.12
-2.91
-2.09
-0.91
0.22
0.89
0.92
0.41
-0.32
-0.89
-1.00
-0.66
-0.06
0.46
0.63
0.32
-0.37
-1.18
-1.85
-2.21
-2.20
-1.94
-1.61
-1.40
-1.44
-1.73
-2.21
-2.75
-3.21
-3.49
-3.55
-3.41
-3.10
-2.68
-2.17
-1.61
-1.02
-0.39
0.34
1.20
2.22
3.31
4.31
5.06
5.43
5.39
5.08
4.63
4.14
3.61
2.97
2.14
1.12
-0.00
-1.09
-2.02
-2.70
-3.13
-3.33
-3.37
-3.32
-3.24
-3.15
-3.07
-2.95
-2.73
-2.37
-1.86
-1.21
-0.49
0.26
0.96
1.53
1.90
2.05
2.02
1.90
1.83
1.89
2.12
2.45
2.79
3.05
3.16
3.08
2.83
2.46
2.03
1.65
1.37
1.23
1.17
1.10
0.98
0.80
0.61
0.46
0.35
0.23
0.08
-0.10
-0.22
-0.21
-0.05
0.17
0.25
0.03
-0.49
-1.18
-1.79
-2.10
-2.03
-1.69
-1.26
-0.90
-0.68
-0.55
-0.41
-0.23
-0.04
0.05
-0.03
-0.21
-0.35
-0.26
0.14
0.74
1.32
1.64
1.56
1.17
0.68
0.35
0.33
0.61
1.01
1.34
1.42
1.23
0.86
0.46
0.16
0.02
0.01
0.06
0.14
0.25
0.40
0.60
0.81
0.92
0.87
0.64
0.29
-0.09
-0.37
-0.49
-0.42
-0.21
0.09
0.38
0.57
0.61
0.47
0.18
-0.16
-0.39
-0.45
-0.32
-0.12
0.02
-0.04
-0.34
-0.83
-1.37
-1.79
-1.96
-1.79
-1.32
-0.65
0.06
0.69
1.16
1.45
1.59
1.64
1.61
1.56
1.50
1.47
1.45
1.41
1.26
0.92
0.35
-0.35
-1.00
-1.39
-1.40
-1.02
-0.42
0.16
0.48
0.43
0.04
-0.51
-1.01
-1.29
-1.34
-1.23
-1.03
-0.71
-0.19
0.56
1.44
2.20
2.52
2.24
1.44
0.41
-0.49
-1.08
-1.37
-1.51
-1.65
-1.77
-1.78
-1.60
-1.27
-0.96
-0.87
-1.07
-1.50
-1.97
-2.34
-2.54
-2.63
-2.70
-2.80
-2.88
-2.82
-2.56
-2.08
-1.48
-0.90
-0.46
-0.25
-0.24
-0.37
-0.49
-0.50
-0.29
0.13
0.68
1.18
1.50
1.54
1.32
0.94
0.55
0.27
0.14
0.12
0.14
0.13
0.05
-0.13
-0.39
-0.70
-1.07
-1.46
-1.81
-2.07
-2.15
-2.00
-1.61
-1.04
-0.40
0.19
0.67
0.99
1.16
1.21
1.18
1.10
0.99
0.84
0.63
0.32
-0.07
-0.46
-0.74
-0.81
-0.62
-0.17
0.46
1.19
1.90
2.45
2.75
2.76
2.54
2.24
2.00
1.90
1.91
1.90
1.73
1.40
1.01
0.71
0.59
0.61
0.66
0.63
0.50
0.35
0.33
0.47
0.76
1.05
1.17
1.02
0.60
0.02
-0.60
-1.11
-1.44
-1.59
-1.58
-1.45
-1.26
-1.07
-0.94
-0.91
-1.05
-1.34
-1.77
-2.26
-2.75
-3.16
-3.45
-3.60
-3.61
-3.52
-3.44
-3.48
-3.75
-4.28
-5.01
-5.84
-6.62
-7.26
-7.71
-7.99
-8.10
-8.07
-7.92
-7.73
-7.55
-7.46
-7.47
-7.55
-7.58
-7.39
-6.80
-5.69
-4.05
-2.06
0.00
1.75
2.80
2.88
1.90
-0.02
-2.54
-5.17
-7.43
-8.93
-9.65
-9.92
-10.36
-11.64
-14.13
-17.65
-21.51
-24.75
-26.64
-27.05
-26.65
-26.60
-28.08
-31.69
-37.09
-43.11
-48.35
-51.77
-53.22
-53.49
-53.90
-55.73
-59.82
-66.48
-75.49
-85.83
-95.35
-100.76
-98.41
-85.79
-63.15
-34.03
-4.35
19.90
34.98
40.75
40.05
36.79
33.97
32.51
31.50
29.47
25.69
20.80
16.59
15.06
17.47
23.87
33.06
43.27
52.98
61.57
69.31
76.83
84.35
91.22
96.15
97.88
96.14
91.95
87.26
84.02
83.29
84.82
87.31
89.25
89.60
88.38
86.46
85.02
84.97
86.54
89.26
92.34
94.83
95.86
94.68
90.66
83.52
73.54
61.68
49.13
36.57
23.65
9.09
-8.38
-28.92
-50.81
-70.85
-85.73
-93.52
-94.53
-90.92
-85.49
-80.29
-75.94
-71.95
-67.60
-62.66
-57.64
-53.39
-50.47
-48.78
-47.63
-46.20
-43.91
-40.71
-37.10
-33.75
-31.26
-29.85
-29.39
-29.47
-29.64
-29.58
-29.21
-28.67
-28.13
-27.75
-27.59
-27.66
-27.95
-28.49
-29.34
-30.55
-32.09
-33.83
-35.61
-37.38
-39.28
-41.56
-44.52
-48.26
-52.61
-57.13
-61.41
-65.18
-68.50
-71.58
-74.53
-77.16
-79.10
-80.01
-79.78
-78.27
-74.83
-68.01
-55.86
-36.85
-11.00
19.52
50.88
78.87
100.45
114.54
121.87
124.10
122.79
118.95
113.19
106.15
98.70
91.82
86.26
82.16
79.16
76.60
73.74
70.09
65.39
59.69
53.25
46.47
39.74
33.43
27.79
23.00
19.18
16.39
14.59
13.62
13.26
13.32
13.75
14.70
16.39
18.98
22.39
26.29
30.09
33.21
35.25
36.28
36.79
37.59
39.46
42.68
46.80
50.72
53.14
53.24
51.12
47.85
45.15
44.71
47.67
54.33
63.91
74.36
82.41
84.14
76.18
57.39
29.88
-1.11
-28.97
-48.22
-56.61
-55.56
-49.01
-41.07
-34.22
-28.64
-23.05
-15.99
-6.95
3.44
13.97
23.49
31.43
37.82
43.13
48.18
54.07
62.06
73.33
88.23
105.53
122.19
133.74
135.36
123.35
96.25
55.61
5.81
-46.81
-95.36
-133.96
-159.13
-170.32
-169.72
-161.28
-149.29
-137.21
-127.10
-119.73
-114.95
-112.22
-110.88
-110.04
-108.66
-105.56
-99.70
-90.56
-78.30
-63.88
-49.03
-35.82
-26.12
-20.91
-19.84
-21.41
-23.57
-24.71
-24.24
-22.62
-20.76
-19.31
-18.34
-17.42
-16.17
-14.64
-13.37
-12.98
-13.79
-15.43
-17.12
-18.12
-18.09
-17.26
-16.26
-15.74
-15.98
-16.67
-16.89
-15.45
-11.38
-4.47
4.50
13.90
21.86
26.99
28.89
28.23
26.25
24.04
22.07
20.13
17.74
14.67
11.24
8.13
5.92
4.76
4.23
3.68
2.61
1.02
-0.61
-1.64
-1.66
-0.76
0.52
1.49
1.60
0.72
-0.87
-2.64
-4.02
-4.68
-4.55
-3.84
-2.85
-1.81
-0.81
0.22
1.29
2.35
3.26
3.88
4.20
4.37
4.55
4.79
4.93
4.74
4.08
3.03
1.83
0.74
-0.16
-0.92
-1.65
-2.35
-2.90
-3.14
-2.97
-2.50
-1.92
-1.47
-1.23
-1.18
-1.23
-1.40
-1.80
-2.56
-3.78
-5.40
-7.26
-9.12
-10.76
-11.99
-12.80
-13.30
-13.80
-14.60
-15.88
-17.48
-18.85
-19.12
-17.34
-12.98
-6.18
2.14
10.50
17.32
21.32
21.72
18.25
11.04
0.68
-11.70
-24.45
-35.70
-43.94
-48.58
-50.20
-50.23
-50.06
-50.25
-50.12
-48.12
-42.80
-33.81
-22.32
-10.72
-1.63
3.19
3.58
0.83
-3.04
-6.38
-8.64
-10.45
-13.00
-17.14
-22.73
-28.70
-33.67
-36.74
-38.06
-38.74
-40.32
-44.17
-51.05
-60.99
-73.26
-86.13
-96.69
-100.92
-94.54
-74.56
-40.87
3.01
50.57
94.37
128.44
149.88
159.03
158.31
150.54
137.94
122.01
104.06
85.78
69.25
56.25
47.52
42.45
39.41
36.60
32.86
28.07
22.98
18.62
15.75
14.44
14.16
14.01
13.13
11.06
7.84
3.96
0.15
-2.96
-5.01
-6.04
-6.38
-6.47
-6.64
-7.08
-7.73
-8.52
-9.42
-10.45
-11.57
-12.53
-12.88
-12.12
-10.07
-7.06
-3.87
-1.41
-0.27
-0.51
-1.67
-3.06
-4.19
-4.90
-5.35
-5.82
-6.49
-7.33
-8.17
-8.84
-9.27
-9.51
-9.76
-10.28
-11.32
-13.00
-15.22
-17.67
-19.94
-21.66
-22.64
-23.03
-23.17
-23.55
-24.55
-26.32
-28.71
-31.28
-33.49
-34.88
-35.35
-35.09
-34.59
-34.40
-34.95
-36.39
-38.59
-41.03
-42.72
-42.10
-37.32
-26.84
-10.28
11.04
34.14
55.34
71.49
81.09
84.62
83.92
81.14
77.80
74.48
71.21
67.96
65.06
63.12
62.54
63.21
64.46
65.35
65.26
64.11
62.51
61.50
62.03
64.51
68.50
72.65
75.00
73.67
67.42
56.26
41.42
24.96
9.09
-4.53
-15.22
-23.28
-29.52
-34.82
-39.61
-43.85
-47.23
-49.43
-50.41
-50.43
-49.90
-49.15
-48.24
-47.01
-45.14
-42.50
-39.25
-35.87
-32.95
-30.90
-29.81
-29.36
-29.05
-28.43
-27.27
-25.65
-23.85
-22.15
-20.76
-19.65
-18.67
-17.62
-16.38
-15.03
-13.81
-13.04
-12.95
-13.55
-14.52
-15.35
-15.59
-15.06
-14.05
-13.18
-13.13
-14.28
-16.56
-19.41
-22.13
-24.17
-25.41
-26.19
-27.16
-28.88
-31.62
-35.22
-39.12
-42.66
-45.33
-46.87
-47.27
-46.58
-44.75
-41.68
-37.39
-32.06
-25.73
-17.93
-7.57
6.64
25.27
47.30
69.96
89.56
102.96
108.92
108.52
104.36
99.16
94.62
91.02
87.81
84.43
80.77
77.06
73.40
69.42
64.36
57.56
48.92
39.07
29.20
20.58
14.11
10.02
7.94
7.16
7.03
7.02
7.03
7.29
8.19
10.23
13.83
19.18
25.89
32.78
37.92
39.24
35.39
26.59
14.79
3.10
-5.50
-9.31
-8.50
-4.73
-0.16
3.56
5.82
6.93
7.54
8.16
8.91
9.71
10.45
11.19
12.21
13.87
16.60
20.68
26.15
32.78
40.17
47.87
55.53
63.04
70.50
78.25
86.83
97.02
109.53
124.48
140.73
155.57
165.03
164.87
151.93
125.03
85.42
36.48
-16.92
-69.31
-115.43
-151.09
-173.98
-184.07
-183.52
-175.82
-164.59
-152.53
-141.04
-130.51
-120.93
-112.46
-105.29
-99.53
-94.99
-91.19
-87.69
-84.34
-81.11
-78.04
-75.12
-72.25
-69.42
-66.81
-64.64
-62.83
-60.63
-56.60
-49.08
-37.04
-20.79
-2.32
15.22
28.64
35.89
36.77
32.89
26.71
20.50
15.42
11.46
7.90
4.13
0.10
-3.63
-6.34
-7.64
-7.75
-7.31
-7.15
-7.75
-9.13
-10.81
-12.11
-12.48
-11.72
-10.09
-8.13
-6.36
-5.06
-4.12
-3.24
-2.13
-0.80
0.53
1.55
2.27
3.12
4.75
7.51
11.10
14.44
16.16
15.29
11.85
6.84
1.74
-2.25
-4.77
-6.24
-7.44
-8.85
-10.39
-11.49
-11.66
-10.85
-9.62
-8.70
-8.61
-9.35
-10.37
-10.95
-10.63
-9.42
-7.83
-6.55
-6.16
-6.86
-8.45
-10.48
-12.48
-14.04
-14.95
-15.16
-14.80
-14.18
-13.74
-13.88
-14.78
-16.31
-18.01
-19.39
-20.08
-20.14
-20.02
-20.39
-21.80
-24.33
-27.54
-30.59
-32.64
-33.37
-33.14
-32.93
-33.92
-36.95
-42.06
-48.50
-55.11
-60.74
-64.65
-66.56
-66.56
-64.97
-62.48
-60.18
-59.26
-60.18
-61.84
-61.33
-54.79
-39.19
-14.07
17.64
50.39
78.11
96.42
104.05
102.66
95.55
85.98
76.15
67.04
58.81
51.48
45.23
40.26
36.60
33.85
31.36
28.41
24.46
19.58
14.25
9.16
4.90
1.61
-1.25
-4.64
-9.40
-15.45
-21.47
-25.17
-24.34
-18.08
-7.45
4.72
15.05
21.05
22.05
19.20
14.50
9.79
6.06
3.46
1.77
0.76
0.53
1.32
3.48
7.24
12.64
19.44
26.88
33.75
38.53
39.83
36.93
30.05
20.41
9.72
-0.24
-8.26
-13.83
-17.34
-19.81
-22.56
-26.65
-32.52
-39.68
-46.56
-50.76
-49.49
-40.64
-23.70
-0.33
25.86
50.49
69.93
82.50
88.81
91.01
91.46
91.64
91.73
91.06
89.01
85.71
81.99
79.10
77.89
78.40
79.74
80.41
78.75
73.44
63.75
49.65
31.77
11.36
-9.80
-29.63
-46.17
-57.96
-64.50
-66.30
-64.61
-60.98
-56.77
-52.83
-49.61
-47.24
-45.72
-44.93
-44.61
-44.34
-43.72
-42.56
-40.98
-39.15
-37.25
-35.09
-32.20
-28.05
-22.38
-15.44
-8.01
-1.11
4.33
7.80
9.28
9.20
8.14
6.68
5.23
4.03
3.16
2.57
2.13
1.66
0.98
-0.03
-1.36
-2.90
-4.49
-5.97
-7.20
-8.12
-8.74
-9.15
-9.45
-9.76
-10.21
-10.82
-11.58
-12.43
-13.23
-13.79
-13.83
-13.08
-11.24
-8.08
-3.46
2.58
9.78
17.67
25.55
32.64
38.19
41.71
43.09
42.65
41.00
38.86
36.80
35.14
33.87
32.80
31.70
30.41
28.86
27.05
24.90
22.31
19.10
15.25
10.94
6.62
2.93
0.42
-0.59
-0.15
1.38
3.50
5.73
7.81
9.62
11.21
12.66
14.03
15.40
16.91
18.78
21.22
24.25
27.49
30.20
31.44
30.46
27.08
21.88
16.01
10.75
6.96
4.79
3.70
2.87
1.63
-0.16
-2.07
-3.34
-3.25
-1.48
1.75
5.84
10.09
14.09
17.86
21.86
26.68
32.73
39.96
47.95
55.99
63.52
70.29
76.45
82.50
89.19
97.44
108.07
121.39
136.47
150.73
160.17
160.24
147.21
119.45
78.20
27.58
-26.34
-76.89
-118.31
-147.03
-162.19
-165.51
-160.37
-150.61
-139.46
-128.88
-119.63
-111.71
-104.98
-99.41
-94.95
-91.37
-88.12
-84.55
-80.18
-75.05
-69.61
-64.59
-60.62
-57.86
-55.93
-54.06
-51.46
-47.68
-42.78
-37.21
-31.56
-26.30
-21.74
-18.09
-15.53
-14.18
-13.92
-14.36
-14.86
-14.84
-14.07
-12.84
-11.94
-12.25
-14.44
-18.66
-24.45
-30.95
-37.22
-42.57
-46.84
-50.40
-53.95
-58.22
-63.52
-69.59
-75.69
-80.97
-84.87
-87.46
-89.48
-91.88
-95.27
-99.53
-103.86
-107.15
-108.35
-106.46
-100.20
-87.66
-66.71
-36.18
2.84
46.27
87.86
121.27
142.45
150.99
149.76
143.10
134.66
126.15
117.53
108.14
97.87
87.40
77.93
70.27
64.39
59.38
54.08
47.72
40.31
32.66
25.92
21.07
18.43
17.58
17.53
17.27
16.12
14.02
11.44
9.05
7.37
6.52
6.22
5.91
5.10
3.51
1.25
-1.30
-3.65
-5.40
-6.37
-6.66
-6.59
-6.54
-6.83
-7.60
-8.74
-10.01
-11.08
-11.65
-11.60
-11.05
-10.34
-9.96
-10.31
-11.55
-13.50
-15.66
-17.42
-18.36
-18.43
-17.96
-17.62
-18.10
-19.93
-23.37
-28.35
-34.26
-39.68
-42.28
-39.32
-28.68
-10.04
14.48
40.74
64.01
80.63
89.12
90.22
85.88
78.09
68.19
56.87
44.73
32.66
21.76
12.83
6.07
1.00
-3.11
-6.73
-10.00
-12.72
-14.66
-15.72
-15.95
-15.46
-14.42
-13.02
-11.54
-10.32
-9.57
-9.27
-9.15
-8.77
-7.80
-6.17
-4.13
-2.10
-0.49
0.51
1.00
1.26
1.58
2.11
2.82
3.50
3.92
3.97
3.76
3.58
3.74
4.41
5.47
6.60
7.38
7.55
7.08
6.22
5.26
4.49
3.98
3.68
3.47
3.28
3.00
2.39
1.07
-1.33
-4.82
-8.86
-12.46
-14.56
-14.59
-12.85
-10.32
-8.24
-7.39
-7.75
-8.61
-9.08
-8.59
-7.26
-5.71
-4.70
-4.66
-5.44
-6.43
-6.96
-6.65
-5.46
-3.58
-1.11
2.02
5.89
10.20
14.21
16.87
17.42
15.80
12.77
9.51
6.97
5.40
4.35
3.08
1.10
-1.52
-4.28
-6.57
-8.06
-8.71
-8.75
-8.43
-8.01
-7.62
-7.25
-6.86
-6.41
-5.86
-5.30
-4.90
-4.85
-5.22
-5.90
-6.64
-7.15
-7.25
-6.93
-6.38
-5.85
-5.53
-5.45
-5.45
-5.31
-4.91
-4.31
-3.75
-3.52
-3.73
-4.19
-4.46
-4.06
-2.72
-0.55
1.97
4.22
5.68
6.19
5.88
5.10
4.24
3.50
2.96
2.55
2.19
1.77
1.22
0.47
-0.52
-1.71
-2.98
-4.13
-4.99
-5.58
-6.11
-6.99
-8.57
-10.97
-13.92
-16.84
-19.08
-20.24
-20.43
-20.23
-20.46
-21.73
-24.18
-27.28
-30.08
-31.76
-31.92
-30.82
-29.28
-28.27
-28.59
-30.78
-35.12
-41.50
-48.94
-55.25
-57.25
-51.73
-36.99
-14.11
13.01
38.95
58.97
70.74
74.95
74.27
71.65
68.92
66.40
63.57
60.12
56.45
53.60
52.50
53.35
55.51
57.83
59.22
59.10
57.68
55.70
53.98
53.09
53.11
53.69
54.26
54.33
53.56
51.75
48.60
43.69
36.55
26.93
15.07
1.75
-11.83
-24.35
-34.77
-42.48
-47.39
-49.71
-49.90
-48.48
-46.06
-43.27
-40.70
-38.75
-37.53
-36.83
-36.23
-35.29
-33.74
-31.55
-28.96
-26.37
-24.11
-22.40
-21.32
-20.76
-20.53
-20.39
-20.06
-19.33
-18.10
-16.45
-14.62
-12.95
-11.74
-11.14
-11.06
-11.25
-11.38
-11.18
-10.56
-9.59
-8.49
-7.54
-6.98
-6.98
-7.65
-8.99
-10.92
-13.24
-15.75
-18.21
-20.40
-22.25
-23.76
-25.06
-26.31
-27.63
-29.04
-30.47
-31.77
-32.76
-33.25
-32.98
-31.68
-29.05
-24.87
-19.03
-11.56
-2.63
7.48
18.42
29.73
40.73
50.60
58.43
63.54
65.67
65.12
62.63
59.16
55.52
52.17
49.20
46.47
43.82
41.21
38.75
36.57
34.74
33.14
31.54
29.64
27.18
23.98
19.97
15.20
9.87
4.34
-0.94
-5.48
-8.94
-11.14
-12.19
-12.28
-11.65
-10.46
-8.81
-6.77
-4.47
-2.08
0.16
2.09
3.65
4.92
6.02
7.11
8.33
9.69
11.16
12.67
14.15
15.63
17.13
18.69
20.23
21.52
22.32
22.41
21.77
20.57
19.11
17.75
16.77
16.35
16.54
17.27
18.34
19.47
20.37
20.85
20.91
20.72
20.53
20.53
20.66
20.69
20.23
18.94
16.70
13.73
10.53
7.78
6.04
5.56
6.24
7.76
9.80
12.30
15.54
19.88
25.57
32.59
40.74
49.54
57.95
64.08
65.05
57.71
40.04
12.60
-20.87
-54.27
-81.25
-97.58
-102.49
-98.37
-89.20
-78.59
-68.69
-60.20
-53.16
-47.71
-44.36
-43.44
-44.59
-46.63
-47.85
-46.82
-43.06
-37.35
-31.34
-26.76
-24.53
-24.22
-24.26
-22.76
-18.56
-11.99
-4.83
0.53
2.25
-0.05
-5.22
-11.12
-15.64
-17.44
-16.29
-12.79
-7.96
-2.84
1.80
5.47
8.02
9.61
10.65
11.51
12.33
12.90
12.74
11.47
9.06
5.97
2.95
0.64
-0.68
-1.21
-1.35
-1.43
-1.57
-1.71
-1.78
-1.85
-2.15
-2.86
-3.95
-5.16
-6.07
-6.36
-5.99
-5.18
-4.29
-3.66
-3.45
-3.61
-4.02
-4.47
-4.84
-5.03
-5.00
-4.78
-4.43
-4.05
-3.71
-3.45
-3.29
-3.25
-3.32
-3.45
-3.58
-3.57
-3.31
-2.78
-2.06
-1.38
-0.92
-0.78
-0.88
-1.03
-1.04
-0.83
-0.49
-0.18
-0.04
-0.15
-0.41
-0.71
-0.92
-1.00
-1.08
-1.33
-1.93
-2.89
-3.99
-4.83
-5.00
-4.30
-2.82
-1.02
0.57
1.50
1.63
1.12
0.28
-0.63
-1.45
-2.18
-2.85
-3.50
-4.15
-4.83
-5.52
-6.17
-6.65
-6.84
-6.70
-6.32
-5.91
-5.68
-5.74
-6.09
-6.65
-7.33
-8.12
-8.96
-9.71
-10.13
-9.99
-9.26
-8.18
-7.18
-6.63
-6.65
-7.07
-7.58
-7.90
-7.98
-7.93
-7.92
-8.06
-8.30
-8.51
-8.56
-8.44
-8.26
-8.13
-8.06
-7.97
-7.64
-6.84
-5.44
-3.48
-1.20
1.05
2.89
4.09
4.62
4.59
4.20
3.54
2.69
1.76
1.07
1.06
2.10
4.25
7.00
9.45
10.59
9.80
7.10
3.10
-1.32
-5.44
-8.89
-11.72
-14.25
-16.69
-19.18
-21.67
-24.06
-26.36
-28.82
-31.83
-35.71
-40.26
-44.57
-47.18
-46.70
-42.57
-35.58
-27.52
-20.55
-16.14
-14.63
-15.33
-17.24
-19.59
-21.89
-23.65
-23.94
-21.57
-15.72
-6.70
3.71
12.86
18.32
19.04
15.67
10.40
5.97
4.69
7.78
15.19
25.76
37.72
49.17
58.60
65.19
68.90
70.32
70.29
69.49
68.39
67.19
66.03
65.12
64.70
64.88
65.50
66.19
66.45
66.01
64.84
63.27
61.80
60.88
60.76
61.36
62.37
63.18
63.05
61.16
56.85
49.84
40.39
29.22
17.31
5.59
-5.30
-15.03
-23.53
-30.78
-36.78
-41.57
-45.28
-48.14
-50.37
-52.09
-53.21
-53.54
-52.93
-51.39
-49.11
-46.37
-43.44
-40.54
-37.84
-35.45
-33.42
-31.77
-30.39
-29.12
-27.82
-26.41
-25.00
-23.78
-22.98
-22.73
-22.99
-23.55
-24.10
-24.35
-24.11
-23.33
-22.10
-20.58
-18.89
-17.11
-15.32
-13.61
-12.19
-11.31
-11.23
-12.05
-13.67
-15.70
-17.61
-18.82
-18.94
-17.78
-15.47
-12.35
-8.92
-5.71
-3.16
-1.60
-1.21
-1.94
-3.52
-5.46
-7.19
-8.11
-7.84
-6.21
-3.35
0.51
5.14
10.40
16.24
22.59
29.25
35.80
41.70
46.40
49.50
50.91
50.82
49.65
47.82
45.68
43.38
40.97
38.43
35.80
33.18
30.68
28.30
25.97
23.57
21.07
18.55
16.20
14.24
12.77
11.78
11.16
10.86
10.87
11.31
12.29
13.88
16.02
18.52
21.16
23.71
26.07
28.22
30.26
32.36
34.77
37.75
41.46
45.72
49.87
52.87
53.53
51.04
45.39
37.38
28.42
19.94
12.92
7.60
3.77
1.06
-0.79
-2.05
-3.17
-4.91
-8.06
-12.98
-19.19
-25.33
-29.64
-30.68
-27.87
-21.69
-13.45
-4.70
3.27
9.83
15.11
19.83
25.04
31.64
40.04
49.87
60.03
69.05
75.70
79.47
80.90
81.53
83.54
89.00
98.90
112.29
126.03
135.26
134.71
120.39
90.99
48.66
-1.52
-52.80
-98.61
-134.16
-157.24
-168.26
-169.37
-163.41
-153.10
-140.57
-127.54
-115.46
-105.66
-99.07
-95.82
-94.92
-94.54
-92.64
-87.77
-79.51
-68.55
-56.31
-44.48
-34.53
-27.39
-23.26
-21.57
-21.20
-20.84
-19.52
-16.96
-13.67
-10.54
-8.32
-7.27
-7.05
-7.05
-6.78
-6.16
-5.50
-5.29
-5.79
-6.96
-8.38
-9.46
-9.71
-8.93
-7.27
-5.15
-3.09
-1.56
-0.79
-0.82
-1.51
-2.61
-3.90
-5.11
-6.01
-6.33
-5.88
-4.60
-2.65
-0.40
1.63
2.99
3.41
2.88
1.66
0.11
-1.41
-2.61
-3.37
-3.63
-3.43
-2.89
-2.23
-1.75
-1.77
-2.48
-3.85
-5.57
-7.15
-8.09
-8.08
-7.11
-5.47
-3.69
-2.31
-1.78
-2.24
-3.48
-4.97
-5.97
-5.83
-4.22
-1.30
2.28
5.62
7.81
8.28
6.94
4.15
0.53
-3.27
-6.75
-9.62
-11.77
-13.29
-14.31
-15.00
-15.46
-15.76
-15.96
-16.17
-16.53
-17.08
-17.74
-18.23
-18.35
-18.11
-17.90
-18.29
-19.70
-22.10
-24.96
-27.51
-29.22
-30.17
-30.97
-32.38
-34.73
-37.74
-40.63
-42.72
-43.89
-44.76
-46.30
-49.18
-53.33
-57.76
-61.11
-62.35
-61.46
-59.42
-57.55
-56.67
-56.66
-56.87
-56.86
-56.73
-56.64
-55.65
-51.14
-39.44
-17.97
12.66
47.80
80.24
103.23
113.50
112.30
104.14
94.09
85.28
78.17
71.55
64.29
56.42
49.02
43.37
39.90
37.89
35.89
32.59
27.50
21.11
14.59
9.14
5.41
3.27
1.91
0.25
-2.47
-6.41
-11.00
-15.20
-17.93
-18.56
-17.13
-14.39
-11.43
-9.24
-8.32
-8.51
-9.17
-9.49
-8.83
-6.96
-4.16
-1.09
1.52
3.17
3.99
4.82
7.00
11.80
19.80
30.48
42.26
53.19
61.66
67.02
69.64
70.48
70.53
70.32
69.97
69.39
68.60
67.81
67.35
67.39
67.80
68.25
68.32
67.70
66.25
63.94
60.66
56.13
49.89
41.50
30.81
18.15
4.41
-9.17
-21.29
-30.99
-37.82
-41.90
-43.72
-43.93
-43.14
-41.85
-40.41
-39.05
-37.90
-36.96
-36.12
-35.20
-34.08
-32.69
-31.08
-29.34
-27.59
-25.92
-24.39
-23.02
-21.83
-20.80
-19.90
-19.08
-18.33
-17.64
-17.01
-16.41
-15.73
-14.83
-13.58
-11.89
-9.85
-7.66
-5.58
-3.84
-2.58
-1.82
-1.57
-1.78
-2.50
-3.72
-5.39
-7.38
-9.47
-11.41
-13.01
-14.21
-15.03
-15.60
-16.10
-16.73
-17.66
-19.01
-20.73
-22.57
-24.10
-24.83
-24.39
-22.66
-19.82
-16.28
-12.54
-9.00
-5.84
-3.03
-0.34
2.57
6.06
10.39
15.70
21.87
28.55
35.18
41.13
45.85
48.95
50.32
50.05
48.43
45.91
42.95
40.06
37.59
35.73
34.37
33.23
31.87
29.98
27.50
24.63
21.80
19.42
17.71
16.62
15.81
14.94
13.79
12.47
11.38
11.06
11.99
14.33
17.90
22.13
26.29
29.54
31.22
30.99
29.05
26.12
23.30
21.80
22.40
25.07
28.84
32.08
33.15
31.14
26.26
19.75
13.38
8.65
6.22
5.78
6.37
6.89
6.64
5.44
3.54
1.33
-0.92
-3.01
-4.75
-5.84
-5.87
-4.56
-1.95
1.50
5.06
8.13
10.57
12.89
16.04
20.94
28.02
36.97
46.83
56.34
64.43
70.58
75.07
79.08
84.43
92.99
105.75
121.80
137.99
149.37
150.63
137.74
109.29
67.05
15.58
-38.81
-89.40
-130.34
-157.83
-170.81
-171.12
-162.82
-150.78
-139.21
-130.46
-124.90
-121.49
-118.92
-116.32
-113.22
-109.08
-102.92
-93.45
-79.87
-62.69
-44.14
-27.57
-16.22
-11.77
-13.61
-19.10
-24.85
-28.21
-28.21
-25.54
-21.77
-18.19
-15.25
-12.65
-9.88
-6.88
-4.12
-2.35
-2.13
-3.40
-5.49
-7.47
-8.60
-8.61
-7.80
-6.74
-5.97
-5.78
-6.12
-6.70
-7.11
-7.07
-6.51
-5.52
-4.34
-3.14
-1.99
-0.85
0.37
1.69
3.04
4.22
4.92
4.90
4.07
2.52
0.54
-1.48
-3.24
-4.59
-5.57
-6.33
-7.00
-7.62
-8.14
-8.48
-8.66
-8.82
-9.16
-9.82
-10.85
-12.08
-13.21
-13.85
-13.64
-12.36
-9.93
-6.47
-2.19
2.65
7.69
12.47
16.46
19.23
20.65
20.93
20.51
19.67
18.24
15.53
10.73
3.49
-5.68
-15.43
-24.03
-30.12
-33.12
-33.35
-31.67
-29.05
-26.33
-24.11
-22.73
-22.28
-22.61
-23.33
-24.00
-24.34
-24.44
-24.73
-25.77
-27.98
-31.35
-35.48
-39.68
-43.30
-46.00
-47.81
-49.10
-50.49
-52.56
-55.81
-60.44
-66.06
-71.31
-73.63
-69.76
-56.96
-34.51
-4.64
27.67
56.34
76.40
85.78
85.67
79.45
70.93
62.77
56.03
50.58
45.95
41.85
38.19
34.88
31.60
27.94
23.72
19.07
14.36
9.95
5.95
2.17
-1.66
-5.67
-9.81
-13.89
-17.59
-20.19
-20.35
-16.19
-5.87
11.48
34.99
62.02
88.94
112.29
129.81
140.57
144.60
142.14
133.43
118.99
100.30
79.98
61.41
47.62
39.98
37.31
35.90
30.74
17.46
-5.76
-36.97
-70.98
-101.09
-121.54
-129.58
-126.47
-116.86
-106.93
-101.72
-102.80
-107.40
-109.60
-103.15
-84.83
-56.39
-24.04
4.38
23.10
30.94
31.08
28.57
27.14
27.42
27.48
24.97
19.38
12.60
7.90
7.84
12.79
20.90
28.98
34.20
35.11
32.06
26.65
20.90
16.29
13.41
11.90
10.86
9.41
7.13
4.22
1.42
-0.41
-0.73
0.41
2.37
4.15
4.95
4.46
3.00
1.28
0.02
-0.34
0.16
1.08
1.80
1.77
0.83
-0.71
-2.17
-2.74
-1.87
0.43
3.58
6.62
8.64
9.14
8.21
6.41
4.45
2.90
2.00
1.70
1.81
2.12
2.51
2.91
3.30
3.64
3.85
3.78
3.28
2.26
0.74
-1.06
-2.86
-4.36
-5.43
-6.16
-6.77
-7.53
-8.54
-9.73
-10.85
-11.60
-11.76
-11.31
-10.37
-9.16
-7.85
-6.52
-5.09
-3.46
-1.66
0.16
1.73
2.88
3.68
4.41
5.43
6.81
8.27
9.26
9.27
8.18
6.35
4.47
3.18
2.72
2.90
3.30
3.51
3.41
3.12
2.87
2.78
2.79
2.75
2.56
2.23
1.92
1.85
2.10
2.59
3.14
3.48
3.47
3.09
2.47
1.79
1.22
0.83
0.65
0.62
0.67
0.71
0.65
0.46
0.16
-0.18
-0.45
-0.57
-0.51
-0.32
-0.09
0.10
0.16
0.07
-0.16
-0.48
-0.74
-0.78
-0.44
0.32
1.43
2.69
3.89
4.86
5.51
5.83
5.82
5.47
4.81
3.91
2.94
2.08
1.43
0.94
0.43
-0.30
-1.35
-2.63
-3.87
-4.81
-5.25
-5.15
-4.66
-3.96
-3.25
-2.66
-2.26
-2.16
-2.48
-3.31
-4.66
-6.37
-8.12
-9.50
-10.11
-9.78
-8.53
-6.60
-4.33
-2.05
-0.01
1.65
2.91
3.83
4.54
5.22
6.00
6.95
8.00
8.96
9.59
9.68
9.13
8.00
6.42
4.62
2.81
1.15
-0.25
-1.35
-2.17
-2.76
-3.16
-3.38
-3.41
-3.30
-3.10
-2.89
-2.75
-2.67
-2.63
-2.57
-2.48
-2.33
-2.10
-1.73
-1.16
-0.39
0.53
1.43
2.12
2.46
2.40
2.03
1.53
1.05
0.72
0.55
0.47
0.35
0.14
-0.19
-0.53
-0.77
-0.80
-0.62
-0.30
0.04
0.30
0.45
0.53
0.56
0.57
0.53
0.43
0.28
0.11
-0.07
-0.25
-0.45
-0.68
-0.89
-1.03
-1.07
-0.99
-0.84
-0.71
-0.63
-0.59
-0.56
-0.51
-0.47
-0.48
-0.58
-0.80
-1.06
-1.28
-1.38
-1.32
-1.11
-0.83
-0.57
-0.42
-0.42
-0.57
-0.80
-0.98
-1.02
-0.88
-0.60
-0.31
-0.10
-0.01
-0.01
-0.02
0.00
0.06
0.11
0.10
0.01
-0.13
-0.29
-0.43
-0.53
-0.56
-0.49
-0.33
-0.11
0.08
0.15
0.03
-0.25
-0.59
-0.90
-1.14
-1.31
-1.45
-1.54
-1.55
-1.47
-1.34
-1.26
-1.36
-1.72
-2.30
-2.94
-3.47
-3.72
-3.69
-3.46
-3.18
-2.97
-2.86
-2.85
-2.91
-3.08
-3.41
-3.98
-4.76
-5.59
-6.21
-6.35
-5.87
-4.90
-3.73
-2.66
-1.83
-1.16
-0.41
0.59
1.75
2.77
3.26
2.97
1.94
0.42
-1.24
-2.83
-4.35
-5.86
-7.41
-8.90
-10.15
-11.04
-11.58
-11.95
-12.30
-12.70
-12.97
-12.90
-12.27
-11.08
-9.50
-7.77
-6.05
-4.25
-2.11
0.67
4.18
8.17
12.13
15.42
17.58
18.49
18.36
17.64
16.76
15.95
15.25
14.55
13.73
12.78
11.78
10.88
10.14
9.56
9.06
8.58
8.13
7.79
7.66
7.79
8.13
8.54
8.89
9.09
9.20
9.41
9.89
10.76
11.99
13.44
14.89
16.23
17.44
18.66
20.02
21.64
23.51
25.46
27.18
28.28
28.46
27.59
25.84
23.65
21.61
20.21
19.59
19.42
19.07
17.94
15.73
12.65
9.32
6.39
4.30
3.17
2.92
3.27
3.73
3.52
1.66
-2.60
-9.31
-17.47
-25.34
-31.15
-33.98
-34.15
-32.94
-31.70
-31.12
-30.91
-30.18
-28.17
-24.79
-20.64
-16.66
-13.58
-11.64
-10.69
-10.35
-10.19
-10.01
-9.78
-9.65
-9.90
-10.84
-12.60
-14.99
-17.42
-19.13
-19.42
-18.07
-15.35
-11.95
-8.58
-5.65
-3.17
-0.92
1.32
3.46
5.19
6.11
6.03
5.11
3.79
2.56
1.73
1.30
1.00
0.53
-0.30
-1.50
-2.86
-4.08
-4.91
-5.21
-5.00
-4.46
-3.84
-3.33
-3.03
-2.95
-3.02
-3.19
-3.46
-3.83
-4.28
-4.71
-4.99
-5.01
-4.84
-4.62
-4.57
-4.79
-5.25
-5.75
-6.02
-5.84
-5.17
-4.09
-2.83
-1.62
-0.65
0.03
0.37
0.43
0.21
-0.23
-0.79
-1.30
-1.52
-1.25
-0.38
0.94
2.40
3.66
4.52
5.12
5.84
7.14
9.28
12.15
15.27
17.94
19.54
19.72
18.51
16.25
13.45
10.56
7.92
5.70
3.93
2.57
1.57
0.93
0.70
0.95
1.71
2.84
3.92
4.29
3.21
0.21
-4.58
-10.36
-15.80
-19.56
-20.81
-19.71
-17.08
-14.16
-11.94
-10.77
-10.46
-10.59
-10.72
-10.27
-8.47
-4.46
2.16
10.63
18.83
23.95
23.86
18.37
9.58
0.92
-4.53
-5.55
-3.18
0.29
2.73
3.35
2.78
2.29
2.74
4.04
5.31
5.53
4.21
1.52
-1.65
-4.24
-5.56
-5.50
-4.55
-3.53
-3.10
-3.49
-4.36
-5.07
-5.04
-4.10
-2.57
-1.04
-0.05
0.17
-0.20
-0.75
-1.04
-0.79
-0.01
1.13
2.28
3.13
3.44
3.20
2.58
1.88
1.37
1.18
1.22
1.27
1.09
0.57
-0.24
-1.11
-1.83
-2.26
-2.41
-2.41
-2.43
-2.55
-2.75
-2.89
-2.79
-2.31
-1.48
-0.45
0.54
1.27
1.63
1.66
1.50
1.29
1.12
1.03
0.96
0.87
0.73
0.56
0.39
0.26
0.20
0.19
0.19
0.13
-0.05
-0.38
-0.80
-1.23
-1.55
-1.66
-1.54
-1.23
-0.82
-0.40
-0.07
0.16
0.29
0.36
0.38
0.38
0.34
0.23
0.09
-0.05
-0.12
-0.09
0.01
0.13
0.21
0.22
0.22
0.25
0.33
0.42
0.46
0.39
0.23
0.05
-0.06
-0.07
0.01
0.09
0.12
0.08
-0.01
-0.15
-0.31
-0.48
-0.63
-0.71
-0.71
-0.63
-0.50
-0.38
-0.31
-0.30
-0.34
-0.46
-0.72
-1.19
-1.91
-2.77
-3.52
-3.89
-3.68
-2.93
-1.88
-0.94
-0.47
-0.61
-1.25
-2.02
-2.59
-2.75
-2.57
-2.25
-1.99
-1.85
-1.76
-1.65
-1.52
-1.52
-1.81
-2.48
-3.41
-4.30
-4.87
-4.97
-4.65
-4.11
-3.59
-3.27
-3.18
-3.22
-3.24
-3.08
-2.67
-2.07
-1.49
-1.11
-1.05
-1.22
-1.41
-1.47
-1.36
-1.23
-1.21
-1.33
-1.40
-1.09
-0.19
1.29
3.01
4.51
5.47
5.80
5.70
5.45
5.28
5.28
5.37
5.48
5.55
5.60
5.68
5.83
6.08
6.41
6.76
7.04
7.13
6.94
6.48
5.86
5.27
4.90
4.86
5.10
