1682194059.00
64.000000
-0.00
-0.00
-0.00
-0.00
-0.00
-0.00
-0.00
-0.00
-0.00
-0.00
0.00
0.01
0.01
-0.00
-0.03
-0.05
-0.05
0.00
0.13
0.36
0.66
1.01
1.37
1.72
2.06
2.40
2.79
3.25
3.81
4.43
5.08
5.73
6.34
6.94
7.57
8.29
9.10
10.08
11.16
12.24
13.24
14.14
15.03
16.05
17.39
19.15
21.52
24.30
27.26
30.14
32.84
35.45
38.26
41.62
45.76
51.00
57.02
63.41
69.76
75.86
81.84
88.13
95.22
103.39
113.00
123.57
134.50
145.28
155.68
165.89
176.39
188.11
199.24
211.69
226.06
242.85
261.49
279.69
293.38
297.63
288.37
263.88
225.98
178.57
126.60
74.23
23.84
-24.03
-69.90
-114.37
-157.72
-199.86
-241.31
-282.87
-325.01
-366.87
-405.69
-437.13
-456.53
-460.91
-450.12
-427.15
-396.95
-364.68
-334.02
-306.69
-282.91
-262.27
-244.43
-229.03
-215.53
-202.65
-188.31
-170.01
-145.60
-114.02
-75.91
-33.76
8.67
47.29
78.84
101.80
116.50
124.61
128.21
129.10
128.48
127.25
126.34
126.68
128.87
132.83
137.55
141.60
143.70
143.42
141.42
139.35
139.20
142.59
149.82
159.22
167.12
168.47
158.39
134.06
96.16
49.19
0.27
-43.20
-75.87
-95.84
-104.54
-105.30
-101.62
-95.91
-89.31
-82.23
-75.07
-68.61
-63.70
-60.85
-59.81
-59.57
-58.87
-56.77
-53.12
-48.49
-43.85
-40.12
-37.71
-36.40
-35.45
-34.03
-31.57
-28.02
-23.83
-19.72
-16.27
-13.76
-12.02
-10.66
-9.25
-7.57
-5.63
-3.61
-1.72
-0.12
1.10
1.97
2.56
2.99
3.45
4.05
4.79
5.58
6.20
6.45
6.24
5.63
4.78
3.94
3.25
2.74
2.32
1.86
1.21
0.29
-0.86
-2.17
-3.51
-4.76
-5.86
-6.82
-7.69
-8.48
-9.17
-9.66
-9.81
-9.54
-8.87
-7.93
-6.90
-5.97
-5.25
-4.78
-4.50
-4.26
-3.92
-3.30
-2.30
-0.93
0.68
2.33
3.83
5.11
6.22
7.31
8.50
9.78
11.05
12.12
12.82
13.03
12.73
11.97
10.85
9.60
8.56
8.23
9.15
11.74
16.07
21.76
27.97
33.64
37.82
39.92
39.92
38.23
35.52
32.48
29.69
27.49
26.05
25.22
24.59
23.43
20.92
16.39
9.68
1.28
-7.78
-16.21
-22.86
-27.07
-28.70
-28.09
-25.85
-22.68
-19.23
-16.02
-13.38
-11.43
-10.12
-9.27
-8.71
-8.31
-8.02
-7.93
-8.14
-8.75
-9.77
-11.10
-12.56
-13.92
-15.01
-15.75
-16.14
-16.23
-16.02
-15.48
-14.57
-13.28
-11.75
-10.20
-8.89
-7.99
-7.50
-7.32
-7.27
-7.21
-7.15
-7.17
-7.39
-7.85
-8.49
-9.12
-9.57
-9.82
-10.01
-10.42
-11.34
-12.90
-15.04
-17.48
-19.89
-22.03
-23.87
-25.58
-27.45
-29.76
-32.65
-36.02
-39.59
-43.01
-46.03
-48.69
-51.33
-54.46
-58.59
-63.89
-70.13
-76.79
-83.21
-88.83
-93.31
-96.49
-98.40
-99.28
-99.53
-99.38
-98.55
-96.06
-90.54
-81.08
-68.03
-53.23
-39.50
-29.47
-24.61
-24.75
-28.23
-32.29
-33.57
-28.50
-14.03
11.29
46.19
86.38
125.47
157.09
177.14
185.08
183.57
176.61
167.84
159.31
151.62
144.72
138.67
133.81
130.46
128.57
127.61
126.80
125.66
124.33
123.58
124.54
128.01
134.02
141.70
149.50
155.91
160.27
163.21
166.43
171.69
179.58
188.50
194.71
193.44
180.57
153.98
114.19
63.96
7.37
-50.98
-106.64
-155.63
-194.83
-222.49
-238.73
-245.53
-246.23
-244.43
-242.89
-242.94
-244.46
-246.54
-248.13
-248.57
-247.75
-245.98
-243.80
-241.80
-240.53
-240.58
-242.42
-246.15
-251.00
-254.95
-254.97
-247.68
-230.50
-202.62
-165.12
-120.36
-70.78
-18.22
35.87
89.63
140.01
182.87
214.14
231.52
235.55
229.46
217.85
204.81
192.71
182.07
172.29
162.77
153.57
145.27
138.46
133.23
128.98
124.76
119.77
113.80
107.39
101.59
97.47
95.61
95.81
97.17
98.50
98.94
98.36
97.48
97.49
99.43
103.67
109.68
116.33
122.49
127.51
131.56
135.43
140.12
146.46
154.91
165.60
178.30
192.26
205.89
216.61
221.20
216.66
201.21
174.98
139.83
98.39
52.95
4.92
-44.79
-94.68
-141.95
-182.51
-212.37
-229.21
-233.48
-228.27
-217.91
-206.18
-195.16
-185.07
-175.06
-164.39
-153.05
-141.77
-131.40
-122.37
-114.37
-106.65
-98.54
-89.78
-80.74
-72.18
-64.84
-59.11
-54.81
-51.41
-48.18
-44.62
-40.54
-36.11
-31.72
-27.74
-24.38
-21.62
-19.24
-17.02
-14.75
-12.43
-10.19
-8.21
-6.66
-5.53
-4.73
-4.03
-3.29
-2.45
-1.58
-0.81
-0.28
-0.02
-0.01
-0.18
-0.47
-0.84
-1.26
-1.69
-2.05
-2.31
-2.50
-2.68
-2.94
-3.33
-3.83
-4.36
-4.86
-5.32
-5.76
-6.26
-6.86
-7.57
-8.37
-9.23
-10.18
-11.29
-12.63
-14.25
-16.11
-18.09
-20.02
-21.79
-23.40
-25.03
-26.92
-29.33
-32.36
-35.91
-39.70
-43.44
-46.95
-50.33
-53.87
-57.92
-62.67
-68.07
-73.83
-79.64
-85.34
-91.00
-96.82
-103.01
-109.57
-116.31
-123.08
-129.94
-137.18
-144.95
-152.69
-158.75
-160.46
-154.80
-139.14
-111.97
-73.22
-24.42
31.41
89.68
144.35
188.29
214.56
218.11
197.72
156.96
103.93
49.48
4.71
-21.63
-24.87
-5.28
32.38
80.31
129.63
172.62
204.35
223.35
231.17
231.13
226.84
221.10
215.49
210.76
207.36
206.00
207.53
212.57
220.87
230.61
238.49
240.34
232.33
212.06
179.26
135.59
84.09
28.40
-27.58
-79.85
-124.40
-157.79
-177.92
-184.87
-181.01
-170.28
-156.86
-143.92
-133.07
-124.49
-117.64
-111.76
-106.27
-100.78
-95.01
-88.80
-82.21
-75.49
-69.04
-63.28
-58.41
-54.37
-50.89
-47.62
-44.24
-40.59
-36.71
-32.79
-29.12
-25.96
-23.53
-21.89
-20.96
-20.51
-20.25
-19.96
-19.51
-18.99
-18.55
-18.40
-18.62
-19.17
-19.88
-20.52
-20.89
-20.86
-20.39
-19.49
-18.16
-16.48
-14.58
-12.65
-10.89
-9.47
-8.44
-7.69
-7.04
-6.22
-5.01
-3.26
-0.91
2.04
5.48
9.28
13.27
17.25
20.99
24.22
26.66
28.07
28.34
27.57
26.05
24.17
22.30
20.64
19.27
18.15
17.23
16.51
16.01
15.71
15.58
15.50
15.40
15.26
15.14
15.12
15.22
15.39
15.51
15.45
15.14
14.57
13.76
12.77
11.62
10.40
9.22
8.23
7.53
7.10
6.74
6.15
5.09
3.50
1.56
-0.38
-1.96
-3.00
-3.51
-3.69
-3.71
-3.68
-3.54
-3.20
-2.59
-1.79
-0.99
-0.42
-0.21
-0.32
-0.54
-0.57
-0.15
0.84
2.34
4.12
5.92
7.46
8.58
9.29
9.71
10.08
10.69
11.70
13.15
14.87
16.59
18.10
19.40
20.71
22.34
24.49
27.04
29.56
31.49
32.43
32.29
31.27
29.66
27.61
25.10
22.06
18.65
15.12
11.66
8.15
4.10
-1.03
-7.32
-14.11
-20.15
-24.09
-25.17
-23.51
-19.96
-15.57
-11.08
-6.82
-2.90
0.47
2.74
3.27
1.58
-2.36
-8.05
-14.72
-21.65
-28.24
-34.24
-39.52
-44.01
-47.46
-49.49
-49.60
-47.38
-42.79
-36.25
-28.71
-21.36
-15.31
-11.21
-9.12
-8.55
-8.79
-9.20
-9.44
-9.48
-9.45
-9.48
-9.59
-9.60
-9.30
-8.52
-7.25
-5.69
-4.07
-2.57
-1.24
-0.01
1.21
2.42
3.47
4.21
4.52
4.44
4.14
3.81
3.56
3.38
3.24
3.11
3.02
3.02
3.12
3.26
3.31
3.15
2.70
1.95
0.99
-0.09
-1.14
-2.04
-2.69
-3.08
-3.23
-3.20
-3.07
-2.90
-2.68
-2.43
-2.16
-1.93
-1.85
-2.01
-2.43
-3.07
-3.79
-4.42
-4.86
-5.10
-5.18
-5.18
-5.08
-4.85
-4.38
-3.62
-2.56
-1.33
-0.10
0.97
1.80
2.35
2.64
2.68
2.50
2.11
1.59
1.05
0.63
0.43
0.49
0.81
1.31
1.87
2.40
2.81
3.09
3.22
3.22
3.09
2.79
2.28
1.58
0.74
-0.13
-0.93
-1.56
-1.99
-2.22
-2.31
-2.31
-2.31
-2.39
-2.56
-2.77
-2.90
-2.77
-2.27
-1.38
-0.26
0.88
1.81
2.37
2.55
2.41
2.07
1.62
1.12
0.63
0.20
-0.12
-0.31
-0.38
-0.39
-0.42
-0.53
-0.72
-0.93
-1.10
-1.14
-1.03
-0.76
-0.34
0.17
0.73
1.22
1.53
1.53
1.20
0.59
-0.15
-0.82
-1.32
-1.60
-1.72
-1.74
-1.71
-1.62
-1.49
-1.38
-1.38
-1.58
-1.96
-2.40
-2.69
-2.69
-2.36
-1.84
-1.33
-1.02
-0.97
-1.09
-1.23
-1.25
-1.12
-0.90
-0.72
-0.70
-0.87
-1.18
-1.53
-1.79
-1.91
-1.92
-1.88
-1.89
-1.97
-2.12
-2.28
-2.39
-2.44
-2.43
-2.40
-2.37
-2.33
-2.27
-2.18
-2.03
-1.86
-1.72
-1.63
-1.61
-1.62
-1.60
-1.55
-1.51
-1.53
-1.67
-1.89
-2.02
-1.91
-1.46
-0.71
0.16
0.97
1.61
2.10
2.50
2.85
3.13
3.33
3.54
4.03
5.16
7.17
10.02
13.31
16.42
18.79
20.13
20.49
20.12
19.34
18.34
17.16
15.82
14.32
12.73
11.13
9.54
7.94
6.28
4.55
2.78
1.07
-0.55
-2.08
-3.54
-4.93
-6.22
-7.29
-8.06
-8.51
-8.70
-8.72
-8.63
-8.42
-8.04
-7.48
-6.80
-6.11
-5.59
-5.31
-5.27
-5.32
-5.31
-5.15
-4.80
-4.32
-3.78
-3.25
-2.80
-2.47
-2.29
-2.29
-2.44
-2.68
-2.88
-2.94
-2.77
-2.37
-1.82
-1.17
-0.51
0.13
0.67
1.07
1.21
1.05
0.57
-0.13
-0.88
-1.50
-1.81
-1.76
-1.35
-0.74
-0.12
0.32
0.41
0.11
-0.52
-1.29
-1.97
-2.36
-2.40
-2.17
-1.83
-1.56
-1.50
-1.64
-1.90
-2.11
-2.13
-1.89
-1.44
-0.96
-0.65
-0.68
-1.12
-1.86
-2.68
-3.27
-3.29
-2.46
-0.69
1.90
4.88
7.61
9.41
9.79
8.64
6.30
3.45
0.82
-1.04
-1.95
-2.06
-1.70
-1.17
-0.65
-0.17
0.29
0.67
0.87
0.76
0.34
-0.27
-0.82
-1.06
-0.92
-0.46
0.06
0.40
0.37
-0.07
-0.79
-1.64
-2.46
-3.16
-3.69
-4.01
-4.08
-3.83
-3.22
-2.32
-1.27
-0.30
0.33
0.46
0.07
-0.71
-1.65
-2.49
-3.00
-3.07
-2.68
-1.87
-0.78
0.37
1.34
1.90
1.91
1.37
0.51
-0.33
-0.76
-0.53
0.39
1.78
3.28
4.47
5.11
5.08
4.48
3.52
2.45
1.53
1.00
1.05
1.73
2.93
4.33
5.51
6.10
5.87
4.89
3.39
1.74
0.24
-0.95
-1.80
-2.36
-2.66
-2.71
-2.48
-2.02
-1.45
-0.92
-0.58
-0.45
-0.44
-0.37
-0.12
0.30
0.67
0.74
0.31
-0.61
-1.81
-2.96
-3.79
-4.20
-4.20
-3.89
-3.30
-2.40
-1.15
0.42
2.09
3.54
4.42
4.52
3.84
2.59
1.11
-0.27
-1.31
-1.96
-2.26
-2.32
-2.22
-2.00
-1.67
-1.25
-0.82
-0.53
-0.53
-0.88
-1.50
-2.16
-2.54
-2.36
-1.50
-0.03
1.86
3.86
5.67
7.06
7.91
8.13
7.74
6.79
5.43
3.89
2.44
1.36
0.72
0.37
-0.05
-0.92
-2.42
-4.38
-6.35
-7.78
-8.30
-7.96
-7.09
-6.18
-5.60
-5.46
-5.67
-6.04
-6.48
-6.95
-7.44
-7.81
-7.82
-7.21
-5.88
-4.01
-2.03
-0.45
0.36
0.34
-0.30
-1.18
-1.99
-2.59
-3.00
-3.36
-3.74
-4.11
-4.34
-4.24
-3.67
-2.60
-1.11
0.64
2.43
4.04
5.31
6.11
6.33
5.87
4.63
2.53
-0.36
-3.84
-7.55
-11.09
-14.14
-16.58
-18.53
-20.23
-21.94
-23.74
-25.56
-27.17
-28.36
-29.02
-29.18
-29.04
-28.80
-28.61
-28.39
-27.76
-26.03
-22.42
-16.39
-7.92
2.28
12.99
22.84
30.76
36.28
39.60
41.30
41.99
42.08
41.68
40.71
39.15
37.13
34.97
33.09
31.85
31.44
31.74
32.45
33.18
33.65
33.78
33.63
33.24
32.58
31.53
30.07
28.35
26.73
25.59
25.11
25.09
25.06
24.48
22.96
20.46
17.25
13.80
10.63
8.15
6.56
5.76
5.42
5.03
4.05
2.15
-0.71
-4.29
-8.14
-11.83
-15.04
-17.61
-19.53
-20.91
-21.97
-22.96
-24.09
-25.43
-26.83
-27.99
-28.67
-28.73
-28.24
-27.32
-26.03
-24.36
-22.24
-19.76
-17.19
-14.97
-13.45
-12.70
-12.47
-12.30
-11.81
-10.86
-9.61
-8.38
-7.44
-6.83
-6.46
-6.12
-5.69
-5.14
-4.54
-3.99
-3.56
-3.26
-3.03
-2.79
-2.45
-1.96
-1.32
-0.58
0.15
0.83
1.42
1.97
2.52
3.08
3.60
4.01
4.26
4.37
4.41
4.47
4.57
4.66
4.67
4.54
4.31
3.99
3.63
3.20
2.66
2.03
1.36
0.80
0.47
0.42
0.56
0.74
0.81
0.72
0.51
0.27
0.01
-0.30
-0.75
-1.29
-1.75
-1.93
-1.68
-1.10
-0.51
-0.31
-0.74
-1.77
-3.10
-4.33
-5.14
-5.46
-5.42
-5.19
-4.91
-4.61
-4.27
-3.85
-3.41
-3.06
-2.92
-3.08
-3.48
-3.95
-4.29
-4.31
-3.96
-3.25
-2.28
-1.13
0.15
1.51
2.83
3.92
4.53
4.53
3.91
2.90
1.79
0.85
0.23
-0.08
-0.16
-0.14
-0.12
-0.18
-0.42
-0.91
-1.70
-2.74
-3.90
-4.98
-5.78
-6.17
-6.12
-5.71
-5.06
-4.31
-3.58
-2.95
-2.45
-2.06
-1.75
-1.43
-1.05
-0.59
-0.10
0.33
0.64
0.85
1.08
1.50
2.19
3.11
4.06
4.77
5.00
4.66
3.82
2.67
1.43
0.28
-0.69
-1.50
-2.20
-2.82
-3.31
-3.58
-3.55
-3.24
-2.82
-2.53
-2.56
-2.96
-3.56
-4.10
-4.42
-4.51
-4.60
-5.01
-5.99
-7.58
-9.59
-11.66
-13.43
-14.69
-15.46
-16.04
-16.87
-18.38
-20.80
-24.02
-27.61
-30.88
-33.20
-34.25
-34.21
-33.73
-33.62
-34.49
-36.43
-38.92
-40.87
-40.80
-37.09
-28.29
-13.62
6.53
30.31
54.60
75.86
91.22
99.47
101.32
98.73
93.91
88.33
82.44
76.00
68.67
60.46
51.68
42.75
33.88
25.11
16.44
8.01
0.20
-6.50
-11.63
-14.95
-16.43
-16.38
-15.30
-13.86
-12.64
-11.90
-11.49
-10.90
-9.59
-7.33
-4.39
-1.35
1.14
2.75
3.60
4.13
4.83
5.99
7.63
9.48
11.19
12.44
12.94
12.50
10.99
8.41
4.95
1.01
-2.90
-6.37
-9.16
-11.32
-13.07
-14.58
-15.85
-16.71
-16.96
-16.58
-15.78
-14.94
-14.33
-13.90
-13.32
-12.24
-10.58
-8.69
-7.27
-6.91
-7.74
-9.34
-10.92
-11.76
-11.59
-10.65
-9.53
-8.71
-8.38
-8.32
-8.16
-7.62
-6.69
-5.60
-4.69
-4.16
-3.94
-3.76
-3.29
-2.35
-1.00
0.49
1.76
2.58
2.92
2.99
3.00
3.08
3.23
3.32
3.22
2.92
2.49
2.06
1.69
1.39
1.06
0.60
-0.03
-0.79
-1.60
-2.31
-2.82
-3.07
-3.12
-3.04
-2.96
-2.98
-3.10
-3.26
-3.38
-3.42
-3.41
-3.48
-3.71
-4.12
-4.63
-5.06
-5.22
-5.03
-4.49
-3.73
-2.93
-2.24
-1.75
-1.45
-1.24
-0.97
-0.51
0.18
1.05
1.96
2.76
3.34
3.70
3.92
4.09
4.28
4.44
4.47
4.28
3.82
3.12
2.32
1.55
0.94
0.58
0.53
0.82
1.49
2.52
3.77
5.01
5.97
6.43
6.34
5.78
4.96
4.10
3.31
2.58
1.89
1.22
0.61
0.12
-0.24
-0.53
-0.89
-1.45
-2.23
-3.18
-4.13
-4.94
-5.50
-5.81
-5.92
-5.92
-5.89
-5.86
-5.83
-5.74
-5.53
-5.11
-4.45
-3.59
-2.67
-1.85
-1.29
-1.06
-1.08
-1.19
-1.18
-0.90
-0.28
0.61
1.64
2.63
3.42
3.89
4.02
3.82
3.37
2.78
2.16
1.66
1.36
1.33
1.55
1.97
2.49
3.05
3.58
4.03
4.33
4.39
4.17
3.66
3.02
2.44
2.11
2.12
2.37
2.68
2.81
2.67
2.25
1.68
1.12
0.70
0.51
0.59
0.89
1.33
1.74
1.90
1.56
0.56
-1.06
-3.05
-4.93
-6.08
-5.98
-4.46
-1.83
1.12
3.37
4.08
2.87
0.00
-3.74
-7.40
-10.17
-11.58
-11.58
-10.36
-8.29
-5.77
-3.22
-1.04
0.46
1.09
0.87
0.01
-1.16
-2.28
-3.04
-3.28
-2.97
-2.25
-1.36
-0.58
-0.13
-0.04
-0.23
-0.46
-0.52
-0.29
0.21
0.82
1.36
1.70
1.78
1.65
1.43
1.25
1.27
1.62
2.38
3.52
4.88
6.25
7.39
8.13
8.38
8.14
7.43
6.27
4.68
2.71
0.51
-1.68
-3.53
-4.74
-5.11
-4.63
-3.49
-2.01
-0.52
0.75
1.72
2.43
2.99
3.45
3.75
3.75
3.28
2.30
0.93
-0.59
-1.99
-3.07
-3.78
-4.17
-4.32
-4.29
-4.08
-3.70
-3.19
-2.64
-2.11
-1.59
-1.00
-0.24
0.67
1.54
2.04
1.85
0.87
-0.72
-2.51
-4.03
-4.96
-5.24
-5.01
-4.53
-3.98
-3.45
-3.02
-2.76
-2.83
-3.35
-4.31
-5.57
-6.82
-7.80
-8.35
-8.46
-8.25
-7.80
-7.10
-6.08
-4.71
-3.04
-1.21
0.65
2.47
4.30
6.24
8.31
10.40
12.27
13.68
14.51
14.80
14.71
14.41
13.98
13.38
12.52
11.34
9.90
8.39
7.05
6.08
5.51
5.25
5.09
4.83
4.38
3.72
2.93
2.07
1.13
0.08
-1.09
-2.37
-3.66
-4.88
-6.01
-7.07
-8.08
-8.96
-9.57
-9.71
-9.31
-8.43
-7.28
-6.15
-5.27
-4.70
-4.39
-4.19
-3.99
-3.75
-3.51
-3.35
-3.33
-3.40
-3.42
-3.24
-2.71
-1.79
-0.53
0.94
2.49
3.96
5.26
6.28
6.94
7.18
7.01
6.48
5.71
4.83
3.94
3.16
2.56
2.24
2.27
2.65
3.26
3.90
4.33
4.41
4.19
3.84
3.56
3.47
3.51
3.46
3.12
2.39
1.35
0.18
-0.87
-1.64
-2.08
-2.23
-2.21
-2.14
-2.15
-2.33
-2.70
-3.18
-3.70
-4.17
-4.59
-5.01
-5.53
-6.20
-7.02
-7.86
-8.52
-8.81
-8.60
-7.85
-6.71
-5.44
-4.33
-3.63
-3.46
-3.76
-4.29
-4.77
-4.95
-4.68
-3.97
-2.93
-1.71
-0.48
0.64
1.59
2.44
3.34
4.45
5.86
7.45
8.95
9.96
10.12
9.32
7.67
5.54
3.39
1.65
0.62
0.39
0.91
2.00
3.35
4.66
5.64
6.12
6.07
5.62
4.95
4.25
3.67
3.22
2.85
2.42
1.81
0.99
0.03
-0.94
-1.74
-2.30
-2.62
-2.81
-3.00
-3.26
-3.59
-3.97
-4.35
-4.74
-5.17
-5.67
-6.24
-6.78
-7.17
-7.28
-7.02
-6.39
-5.46
-4.39
-3.33
-2.42
-1.77
-1.40
-1.34
-1.55
-1.96
-2.42
-2.75
-2.72
-2.18
-1.10
0.36
1.92
3.28
4.23
4.79
5.09
5.37
5.75
6.20
6.54
6.52
5.98
4.93
3.51
1.97
0.55
-0.52
-1.10
-1.07
-0.36
1.03
3.00
5.25
7.40
9.03
9.83
9.69
8.71
7.15
5.36
3.59
2.03
0.72
-0.34
-1.17
-1.82
-2.31
-2.69
-3.02
-3.40
-3.87
-4.45
-5.06
-5.61
-6.01
-6.22
-6.25
-6.16
-6.01
-5.88
-5.79
-5.76
-5.75
-5.74
-5.67
-5.45
-5.00
-4.30
-3.39
-2.42
-1.61
-1.16
-1.19
-1.69
-2.53
-3.45
-4.12
-4.23
-3.54
-2.00
0.27
2.96
5.62
7.84
9.34
10.00
9.90
9.18
7.99
6.44
4.64
2.71
0.85
-0.72
-1.79
-2.19
-1.88
-0.93
0.51
2.19
3.84
5.23
6.18
6.64
6.64
6.31
5.76
5.11
4.37
3.57
2.69
1.78
0.89
0.10
-0.55
-1.07
-1.52
-1.96
-2.49
-3.13
-3.85
-4.55
-5.13
-5.47
-5.53
-5.30
-4.82
-4.17
-3.48
-2.85
-2.35
-2.05
-1.99
-2.15
-2.49
-2.91
-3.30
-3.60
-3.78
-3.87
-3.96
-4.09
-4.29
-4.53
-4.75
-4.84
-4.70
-4.26
-3.49
-2.47
-1.35
-0.29
0.54
1.10
1.41
1.57
1.73
2.00
2.45
3.12
3.99
4.94
5.84
6.45
6.58
6.13
5.17
3.92
2.77
2.11
2.22
3.19
4.82
6.72
8.39
9.43
9.62
8.96
7.65
5.98
4.21
2.53
1.04
-0.19
-1.15
-1.82
-2.22
-2.41
-2.50
-2.58
-2.72
-2.94
-3.20
-3.46
-3.64
-3.73
-3.74
-3.73
-3.73
-3.78
-3.85
-3.92
-3.97
-4.03
-4.15
-4.37
-4.70
-5.06
-5.31
-5.30
-4.98
-4.38
-3.65
-2.97
-2.49
-2.31
-2.38
-2.59
-2.81
-2.88
-2.72
-2.30
-1.68
-0.93
-0.13
0.66
1.46
2.28
3.12
3.91
4.60
5.11
5.44
5.59
5.60
5.42
4.99
4.25
3.24
2.16
1.28
0.88
1.07
1.77
2.76
3.74
4.50
4.90
4.93
4.64
4.10
3.42
2.66
1.90
1.21
0.62
0.16
-0.14
-0.30
-0.33
-0.27
-0.22
-0.22
-0.31
-0.49
-0.73
-1.05
-1.48
-2.02
-2.63
-3.18
-3.54
-3.62
-3.45
-3.14
-2.82
-2.61
-2.54
-2.58
-2.67
-2.80
-2.97
-3.19
-3.42
-3.61
-3.71
-3.69
-3.56
-3.29
-2.86
-2.19
-1.24
-0.02
1.33
2.62
3.62
4.17
4.19
3.73
2.93
1.93
0.90
-0.03
-0.67
-0.88
-0.53
0.43
1.89
3.61
5.20
6.27
6.56
6.03
4.91
3.59
2.44
1.69
1.32
1.16
0.97
0.64
0.20
-0.24
-0.53
-0.66
-0.70
-0.85
-1.21
-1.80
-2.45
-2.91
-2.99
-2.62
-1.92
-1.13
-0.52
-0.23
-0.26
-0.45
-0.64
-0.71
-0.65
-0.54
-0.48
-0.54
-0.72
-0.99
-1.32
-1.69
-2.07
-2.41
-2.63
-2.67
-2.52
-2.25
-1.96
-1.79
-1.82
-2.04
-2.35
-2.58
-2.58
-2.26
-1.62
-0.75
0.23
1.22
2.16
3.02
3.80
4.46
4.95
5.19
5.16
4.87
4.38
3.72
2.92
1.92
0.72
-0.60
-1.89
-2.89
-3.40
-3.30
-2.56
-1.28
0.44
2.41
4.41
6.19
7.47
8.14
8.22
7.90
7.42
6.90
6.30
5.42
4.08
2.23
0.01
-2.32
-4.51
-6.39
-7.90
-9.05
-9.80
-10.09
-9.88
-9.21
-8.19
-7.03
-5.94
-5.08
-4.51
-4.20
-4.00
-3.72
-3.21
-2.39
-1.29
-0.08
1.00
1.75
2.09
2.04
1.78
1.53
1.47
1.71
2.21
2.84
3.38
3.64
3.53
3.12
2.55
2.03
1.64
1.40
1.19
0.93
0.58
0.22
-0.02
-0.05
0.13
0.38
0.55
0.52
0.30
-0.01
-0.26
-0.32
-0.21
-0.02
0.11
0.09
-0.07
-0.28
-0.42
-0.43
-0.35
-0.27
-0.27
-0.34
-0.43
-0.43
-0.29
-0.04
0.21
0.37
0.38
0.28
0.16
0.09
0.10
0.15
0.17
0.14
0.07
0.02
0.04
0.12
0.21
0.21
0.04
-0.33
-0.82
-1.28
-1.53
-1.47
-1.08
-0.51
0.06
0.42
0.49
0.32
0.03
-0.21
-0.32
-0.30
-0.18
-0.03
0.14
0.30
0.41
0.42
0.27
-0.03
-0.41
-0.75
-0.92
-0.89
-0.70
-0.42
-0.11
0.19
0.48
0.74
0.88
0.84
0.57
0.14
-0.31
-0.62
-0.70
-0.57
-0.33
-0.13
-0.04
-0.07
-0.17
-0.26
-0.28
-0.25
-0.19
-0.13
-0.08
-0.05
-0.01
0.05
0.10
0.11
0.02
-0.16
-0.38
-0.56
-0.59
-0.43
-0.15
0.13
0.28
0.22
0.02
-0.18
-0.25
-0.13
0.12
0.40
0.60
0.66
0.62
0.55
0.48
0.41
0.31
0.16
-0.01
-0.18
-0.30
-0.36
-0.32
-0.17
0.08
0.41
0.74
0.97
1.03
0.91
0.66
0.37
0.11
-0.07
-0.17
-0.21
-0.22
-0.23
-0.25
-0.29
-0.35
-0.39
-0.36
-0.26
-0.10
0.06
0.17
0.19
0.14
0.05
-0.06
-0.16
-0.24
-0.24
-0.13
0.08
0.33
0.47
0.41
0.12
-0.28
-0.62
-0.73
-0.56
-0.17
0.32
0.79
1.17
1.43
1.58
1.64
1.61
1.50
1.35
1.22
1.12
1.08
1.07
1.05
1.00
0.88
0.71
0.49
0.29
0.14
0.08
0.10
0.16
0.25
0.36
0.55
0.86
1.27
1.70
2.00
2.06
1.85
1.49
1.14
0.94
0.94
1.04
1.12
1.08
0.90
0.70
0.57
0.60
0.74
0.91
1.01
0.98
0.84
0.65
0.43
0.23
0.06
-0.08
-0.17
-0.23
-0.28
-0.38
-0.54
-0.77
-1.03
-1.26
-1.43
-1.53
-1.58
-1.63
-1.67
-1.68
-1.65
-1.58
-1.49
-1.45
-1.47
-1.54
-1.62
-1.68
-1.68
-1.62
-1.53
-1.43
-1.34
-1.29
-1.29
-1.35
-1.45
-1.55
-1.61
-1.58
-1.47
-1.34
-1.26
-1.28
-1.39
-1.48
-1.45
-1.21
-0.78
-0.26
0.19
0.45
0.45
0.24
-0.06
-0.33
-0.44
-0.35
-0.10
0.18
0.32
0.19
-0.23
-0.85
-1.51
-2.01
-2.21
-2.13
-1.84
-1.49
-1.21
-1.03
-0.96
-0.96
-1.02
-1.17
-1.40
-1.68
-1.89
-1.90
-1.65
-1.16
-0.59
-0.13
0.10
0.09
-0.05
-0.12
0.02
0.41
1.03
1.78
2.58
3.35
4.06
4.65
5.07
5.28
5.29
5.12
4.90
4.74
4.74
4.91
5.16
5.30
5.09
4.36
3.06
1.33
-0.57
-2.30
-3.58
-4.26
-4.36
-4.07
-3.63
-3.31
-3.28
-3.64
-4.28
-4.99
-5.52
-5.62
-5.25
-4.51
-3.64
-2.91
-2.46
-2.30
-2.29
-2.30
-2.25
-2.15
-2.10
-2.14
-2.26
-2.34
-2.24
-1.84
-1.13
-0.19
0.81
1.71
2.42
2.92
3.30
3.67
4.11
4.63
5.11
5.40
5.37
4.98
4.30
3.48
2.69
2.05
1.57
1.24
1.01
0.90
0.96
1.22
1.65
2.13
2.48
2.57
2.34
1.87
1.27
0.69
0.22
-0.12
-0.34
-0.50
-0.67
-0.91
-1.29
-1.87
-2.68
-3.65
-4.73
-5.88
-7.12
-8.60
-10.47
-12.80
-15.43
-17.93
-19.78
-20.52
-20.09
-18.93
-17.87
-17.79
-19.14
-21.77
-24.88
-27.41
-28.58
-28.21
-26.91
-25.71
-25.57
-26.91
-29.50
-32.59
-35.36
-37.28
-38.28
-38.46
-37.96
-36.62
-34.19
-30.76
-26.98
-23.79
-21.58
-19.31
-14.52
-4.35
12.70
35.59
60.75
83.75
101.48
113.30
120.50
124.16
123.25
114.43
94.01
60.92
18.64
-25.41
-62.86
-88.05
-100.23
-103.09
-102.14
-101.86
-104.11
-108.21
-112.45
-115.16
-114.99
-110.28
-98.54
-76.99
-43.97
-0.45
49.62
100.22
145.14
179.64
200.81
206.94
196.65
168.89
124.18
66.01
1.45
-60.20
-110.19
-143.34
-159.76
-164.47
-164.85
-167.47
-175.40
-187.36
-198.61
-203.04
-195.43
-173.05
-136.26
-88.12
-33.51
21.86
72.51
114.01
143.58
160.28
165.05
160.32
149.44
136.02
123.26
113.53
108.05
106.91
109.25
113.56
118.27
122.27
125.20
127.38
129.47
132.07
135.41
139.30
143.16
146.31
148.16
148.51
147.89
147.63
149.56
155.21
164.74
176.16
185.36
187.13
176.82
151.79
112.23
61.08
3.17
-55.83
-110.34
-155.72
-188.95
-209.23
-218.22
-219.57
-217.54
-215.13
-212.77
-208.15
-197.78
-179.13
-152.45
-121.16
-90.88
-67.47
-55.14
-55.47
-67.27
-87.23
-110.97
-134.14
-153.13
-165.62
-170.41
-166.94
-154.71
-132.91
-100.47
-56.55
-1.43
62.87
132.38
201.50
263.73
312.70
343.24
352.36
340.13
310.02
268.23
222.04
177.43
137.25
100.84
65.52
28.96
-8.73
-44.44
-73.45
-91.79
-98.16
-94.39
-84.35
-72.04
-60.37
-50.96
-44.65
-42.07
-43.70
-49.31
-57.58
-66.30
-73.08
-76.23
-75.27
-70.86
-64.40
-57.40
-50.98
-45.63
-41.06
-36.36
-30.40
-22.35
-12.23
-1.27
8.40
14.46
15.25
10.52
1.63
-8.92
-18.33
-24.44
-26.30
-24.31
-19.76
-14.28
-9.22
-5.42
-3.12
-2.24
-2.53
-3.76
-5.62
-7.79
-9.81
-11.22
-11.69
-11.14
-9.85
-8.33
-7.14
-6.70
-7.11
-8.11
-9.19
-9.79
-9.51
-8.26
-6.21
-3.70
-1.03
1.67
4.36
7.03
9.48
11.32
12.04
11.27
8.96
5.50
1.55
-2.20
-5.23
-7.36
-8.70
-9.44
-9.77
-9.81
-9.58
-9.14
-8.54
-7.91
-7.39
-7.11
-7.11
-7.38
-7.83
-8.35
-8.80
-9.06
-8.99
-8.52
-7.58
-6.17
-4.39
-2.36
-0.28
1.71
3.55
5.26
6.89
8.45
9.86
10.95
11.52
11.43
10.64
9.27
7.50
5.61
3.89
2.57
1.80
1.58
1.75
2.02
2.08
1.70
0.84
-0.30
-1.40
-2.12
-2.22
-1.66
-0.56
0.84
2.25
3.44
4.27
4.66
4.67
4.43
4.13
3.94
3.93
4.08
4.24
4.25
3.99
3.48
2.82
2.16
1.66
1.41
1.39
1.49
1.57
1.45
1.07
0.43
-0.33
-1.06
-1.61
-1.95
-2.13
-2.23
-2.31
-2.38
-2.43
-2.44
-2.44
-2.50
-2.66
-2.91
-3.18
-3.38
-3.49
-3.60
-3.80
-4.22
-4.82
-5.45
-5.86
-5.85
-5.34
-4.47
-3.48
-2.65
-2.18
-2.11
-2.33
-2.67
-2.95
-3.02
-2.80
-2.24
-1.39
-0.34
0.79
1.87
2.78
3.50
4.02
4.38
4.57
4.56
4.31
3.78
3.01
2.07
1.08
0.15
-0.64
-1.19
-1.40
-1.14
-0.33
1.01
2.73
4.54
6.10
7.14
7.49
7.17
6.33
5.22
4.09
3.11
2.37
1.83
1.42
1.09
0.84
0.75
0.86
1.12
1.38
1.45
1.15
0.45
-0.55
-1.65
-2.68
-3.52
-4.09
-4.40
-4.44
-4.22
-3.80
-3.27
-2.80
-2.56
-2.64
-3.04
-3.62
-4.19
-4.53
-4.50
-4.08
-3.39
-2.65
-2.12
-1.97
-2.24
-2.80
-3.40
-3.81
-3.87
-3.51
-2.79
-1.81
-0.73
0.29
1.04
1.36
1.20
0.62
-0.20
-1.01
-1.64
-1.98
-2.07
-2.05
-2.11
-2.44
-3.19
-4.38
-5.85
-7.24
-8.10
-8.13
-7.36
-6.19
-5.31
-5.37
-6.69
-9.12
-12.12
-15.07
-17.50
-19.29
-20.66
-21.99
-23.62
-25.78
-28.51
-31.78
-35.48
-39.43
-43.38
-47.01
-50.02
-52.20
-53.49
-54.00
-53.98
-53.67
-53.19
-52.44
-51.14
-48.97
-45.78
-41.77
-37.41
-33.36
-30.15
-28.13
-27.51
-28.51
-31.49
-36.89
-44.99
-55.57
-67.79
-80.33
-91.66
-100.47
-106.06
-108.50
-108.47
-106.75
-103.76
-99.10
-91.42
-78.69
-58.84
-30.71
5.06
45.67
86.47
122.13
148.23
162.74
166.59
163.13
156.69
150.83
147.32
145.93
145.45
144.72
143.49
142.29
141.90
142.77
144.87
147.87
151.30
154.21
154.56
148.97
133.53
105.61
65.85
18.98
-27.40
-65.48
-90.38
-101.76
-103.35
-100.69
-98.62
-99.77
-104.48
-111.38
-118.04
-121.29
-117.69
-104.36
-80.35
-47.62
-10.72
24.67
53.86
74.58
87.16
93.47
95.58
95.05
93.05
90.91
90.25
92.60
98.36
106.53
114.81
120.72
122.70
120.82
116.77
113.16
112.46
115.84
122.57
129.77
132.92
126.93
107.68
73.57
26.52
-28.09
-82.78
-130.04
-164.55
-184.35
-190.89
-187.72
-178.86
-167.38
-154.99
-142.24
-129.17
-115.72
-101.84
-87.26
-71.69
-54.94
-37.35
-19.97
-4.29
8.28
16.96
21.82
23.68
23.66
22.87
22.06
21.54
21.28
20.95
20.12
18.44
15.85
12.66
9.54
7.21
6.23
6.79
8.60
11.09
13.60
15.58
16.71
17.02
16.77
16.51
16.83
18.21
20.79
24.26
27.97
31.21
33.47
34.71
35.34
35.96
37.10
39.01
41.64
44.66
47.45
49.10
48.51
44.79
37.68
27.93
17.20
7.49
0.37
-3.66
-5.19
-5.41
-5.35
-5.45
-5.52
-5.21
-4.30
-2.95
-1.44
0.01
1.36
2.66
3.86
4.76
5.08
4.60
3.25
1.14
-1.55
-4.60
-7.82
-10.99
-13.87
-16.23
-17.93
-18.97
-19.42
-19.39
-18.82
-17.45
-14.87
-10.94
-6.21
-2.21
-1.08
-4.70
-13.66
-26.66
-40.85
-52.89
-60.41
-62.86
-61.41
-58.07
-54.57
-51.68
-49.33
-47.15
-45.07
-43.41
-42.64
-42.89
-43.80
-44.64
-44.79
-43.99
-42.60
-41.34
-40.97
-41.90
-43.98
-46.57
-48.85
-50.15
-50.28
-49.58
-48.79
-48.71
-49.83
-52.14
-55.08
-57.84
-59.77
-60.80
-61.54
-63.06
-66.30
-71.44
-77.66
-83.41
-86.99
-87.38
-84.60
-79.71
-74.38
-70.32
-68.67
-69.65
-72.28
-74.25
-72.14
-62.18
-41.44
-9.14
32.56
78.89
123.85
162.09
190.48
208.54
217.82
220.60
218.82
213.67
205.92
196.55
187.09
179.53
175.66
176.28
180.43
185.08
185.47
176.16
152.76
113.75
61.70
3.16
-53.23
-99.25
-129.87
-144.52
-146.74
-142.41
-137.69
-137.44
-144.32
-158.51
-177.57
-196.60
-208.88
-207.46
-187.51
-148.44
-94.93
-35.75
19.10
61.73
88.68
101.27
104.00
102.11
99.46
97.78
97.10
96.85
96.83
97.39
99.03
101.98
105.82
109.76
112.81
113.74
110.84
101.76
83.83
55.12
15.77
-31.32
-80.97
-127.25
-165.36
-192.54
-207.80
-210.80
-200.84
-176.77
-137.93
-85.48
-23.07
43.45
107.53
163.58
208.27
241.04
263.65
279.15
290.69
300.27
307.90
311.70
308.85
296.96
275.23
244.78
207.81
166.36
121.28
72.33
19.38
-36.05
-90.05
-136.93
-171.22
-189.91
-193.74
-186.82
-174.74
-162.31
-152.05
-144.04
-136.98
-129.67
-121.88
-114.36
-108.21
-104.01
-101.44
-99.45
-96.77
-92.53
-86.61
-79.68
-72.84
-67.15
-63.20
-60.85
-59.34
-57.71
-55.20
-51.68
-47.60
-43.72
-40.63
-38.50
-36.96
-35.45
-33.55
-31.23
-28.83
-26.81
-25.45
-24.72
-24.26
-23.58
-22.26
-20.04
-16.81
-12.64
-7.69
-2.23
3.37
8.67
13.27
16.98
19.80
21.93
23.57
24.82
25.63
25.95
25.88
25.87
26.66
29.03
33.41
39.61
46.74
53.38
58.06
59.67
57.74
52.51
44.77
35.58
26.06
17.19
9.76
4.20
0.51
-1.80
-3.60
-5.89
-9.39
-14.28
-20.06
-25.73
-30.18
-32.68
-33.12
-32.07
-30.40
-28.92
-28.03
-27.60
-27.21
-26.41
-24.98
-22.97
-20.51
-17.67
-14.40
-10.59
-6.28
-1.79
2.32
5.50
7.39
8.05
7.88
7.46
7.30
7.56
8.08
8.41
8.08
6.81
4.67
2.03
-0.59
-2.81
-4.55
-6.00
-7.36
-8.72
-9.88
-10.47
-10.14
-8.79
-6.58
-3.91
-1.17
1.29
3.31
4.80
5.71
6.02
5.72
4.89
3.71
2.39
1.14
0.10
-0.76
-1.56
-2.47
-3.68
-5.23
-7.03
-8.81
-10.22
-10.99
-11.04
-10.55
-9.91
-9.50
-9.57
-10.11
-10.93
-11.79
-12.58
-13.33
-14.23
-15.47
-17.15
-19.23
-21.58
-24.04
-26.50
-28.93
-31.37
-33.97
-36.89
-40.26
-44.17
-48.63
-53.64
-59.22
-65.41
-72.16
-79.40
-86.88
-94.32
-101.37
-107.73
-113.01
-116.73
-118.32
-117.22
-113.20
-106.40
-97.37
-87.00
-76.33
-66.47
-58.41
-52.64
-48.89
-46.14
-43.09
-38.69
-32.58
-24.78
-15.31
-3.78
10.27
26.69
44.25
60.80
74.33
84.18
91.57
98.80
107.74
118.49
129.15
136.94
139.79
137.45
131.34
123.59
115.82
108.63
101.78
94.78
87.49
80.21
73.55
68.03
63.76
60.40
57.31
53.89
49.86
45.39
41.02
37.32
34.54
32.48
30.69
28.86
27.19
26.39
27.41
30.86
36.65
43.89
51.34
57.87
62.95
66.76
69.95
73.32
77.46
82.59
88.56
95.02
101.62
108.12
114.47
120.82
127.39
134.35
141.96
150.67
161.11
173.71
187.92
201.71
211.56
213.36
203.84
181.78
148.27
105.99
57.90
6.54
-45.86
-96.63
-142.11
-178.10
-201.21
-210.39
-207.64
-197.23
-184.00
-171.47
-161.05
-152.30
-144.00
-135.27
-126.03
-116.92
-108.83
-102.43
-98.01
-95.42
-94.13
-93.27
-92.00
-89.58
-85.63
-80.19
-73.56
-66.15
-58.30
-50.32
-42.50
-35.23
-28.96
-24.02
-20.46
-17.98
-16.07
-14.16
-11.86
-9.11
-6.14
-3.40
-1.34
-0.17
0.22
0.29
0.65
1.72
3.53
5.64
7.38
8.19
7.94
6.93
5.80
5.08
5.04
5.57
6.29
6.84
6.94
6.52
5.59
4.23
2.54
0.61
-1.44
-3.45
-5.24
-6.65
-7.53
-7.80
-7.39
-6.33
-4.75
-2.91
-1.19
-0.00
0.39
-0.05
-1.10
-2.41
-3.59
-4.43
-4.84
-4.87
-4.63
-4.19
-3.64
-3.15
-2.92
-3.16
-3.87
-4.86
-5.76
-6.22
-6.07
-5.43
-4.59
-3.83
-3.33
-3.05
-2.86
-2.66
-2.42
-2.23
-2.20
-2.41
-2.82
-3.37
-3.92
-4.36
-4.56
-4.41
-3.83
-2.82
-1.46
0.11
1.69
3.05
3.99
4.37
4.14
3.45
2.61
2.03
2.06
2.84
4.19
5.67
6.79
7.23
6.93
6.12
5.13
4.24
3.59
3.15
2.82
2.51
2.15
1.71
1.20
0.64
0.08
-0.41
-0.70
-0.66
-0.18
0.80
2.21
3.85
5.39
6.53
7.07
6.97
6.42
5.66
4.95
4.39
3.95
3.52
2.94
2.14
1.15
0.06
-1.00
-1.95
-2.75
-3.38
-3.86
-4.16
-4.20
-3.87
-3.20
-2.35
-1.62
-1.39
-1.87
-3.03
-4.55
-5.95
-6.81
-6.92
-6.35
-5.41
-4.44
-3.75
-3.46
-3.55
-3.86
-4.16
-4.24
-3.90
-3.10
-1.94
-0.66
0.45
1.19
1.57
1.76
1.99
2.44
3.03
3.57
3.86
3.82
3.57
3.38
3.46
3.86
4.46
4.99
5.23
5.10
4.64
3.97
3.24
2.55
1.94
1.45
1.06
0.75
0.48
0.25
0.03
-0.19
-0.43
-0.75
-1.19
-1.79
-2.51
-3.26
-3.94
-4.44
-4.70
-4.74
-4.63
-4.47
-4.39
-4.45
-4.68
-5.09
-5.65
-6.28
-6.88
-7.30
-7.41
-7.12
-6.42
-5.50
-4.61
-3.99
-3.75
-3.77
-3.80
-3.53
-2.82
-1.66
-0.25
1.17
2.38
3.26
3.79
4.07
4.29
4.66
5.32
6.25
7.24
7.94
7.96
7.12
5.50
3.44
1.38
-0.27
-1.21
-1.33
-0.65
0.70
2.46
4.25
5.63
6.24
5.94
4.91
3.54
2.31
1.60
1.55
2.06
2.91
3.81
4.54
4.94
4.94
4.53
3.82
2.98
2.24
1.76
1.62
1.71
1.84
1.79
1.47
0.91
0.30
-0.19
-0.45
-0.51
-0.49
-0.54
-0.72
-1.02
-1.40
-1.83
-2.32
-2.84
-3.28
-3.44
-3.16
-2.44
-1.48
-0.64
-0.26
-0.47
-1.08
-1.71
-1.96
-1.60
-0.70
0.48
1.62
2.49
2.99
3.15
3.05
2.77
2.38
1.93
1.50
1.16
0.90
0.68
0.41
-0.01
-0.56
-1.17
-1.71
-2.04
-2.08
-1.81
-1.28
-0.59
0.12
0.71
1.07
1.16
1.03
0.81
0.64
0.62
0.72
0.80
0.72
0.36
-0.27
-1.03
-1.71
-2.12
-2.16
-1.90
-1.51
-1.17
-0.99
-0.97
-1.02
-1.04
-0.99
-0.91
-0.87
-0.90
-0.96
-1.01
-0.97
-0.84
-0.65
-0.47
-0.33
-0.22
-0.10
0.06
0.24
0.37
0.40
0.34
0.23
0.15
0.09
0.03
-0.10
-0.33
-0.67
-1.02
-1.30
-1.46
-1.50
-1.49
-1.48
-1.51
-1.55
-1.56
-1.51
-1.37
-1.15
-0.89
-0.66
-0.55
-0.62
-0.86
-1.17
-1.43
-1.59
-1.67
-1.76
-1.96
-2.26
-2.57
-2.77
-2.80
-2.70
-2.61
-2.62
-2.75
-2.93
-2.98
-2.76
-2.23
-1.44
-0.54
0.31
0.98
1.44
1.74
1.97
2.17
2.30
2.26
1.95
1.41
0.79
0.31
0.16
0.34
0.69
1.03
1.22
1.30
1.37
1.55
1.81
2.09
2.27
2.31
2.26
2.19
2.17
2.16
2.08
1.85
1.46
0.95
0.44
0.01
-0.27
-0.41
-0.47
-0.51
-0.57
-0.68
-0.80
-0.88
-0.86
-0.71
-0.44
-0.16
-0.03
-0.18
-0.63
-1.29
-1.92
-2.29
-2.24
-1.75
-0.96
-0.05
0.80
1.44
1.80
1.84
1.54
0.96
0.25
-0.35
-0.63
-0.46
0.15
1.02
1.93
2.69
3.25
3.63
3.92
4.16
4.34
4.43
4.40
4.28
4.16
4.08
4.05
3.97
3.73
3.24
2.52
1.71
1.00
0.55
0.42
0.54
0.76
0.89
0.80
0.42
-0.22
-1.04
-1.92
-2.77
-3.50
-4.06
-4.39
-4.42
-4.13
-3.54
-2.78
-2.01
-1.39
-1.01
-0.87
-0.88
-0.90
-0.87
-0.76
-0.62
-0.49
-0.41
-0.37
-0.37
-0.38
-0.40
-0.41
-0.41
-0.46
-0.61
-0.92
-1.37
-1.89
-2.28
-2.38
-2.12
-1.60
-1.05
-0.70
-0.71
-1.06
-1.58
-2.05
-2.32
-2.32
-2.14
-1.87
-1.59
-1.31
-1.00
-0.63
-0.17
0.32
0.79
1.16
1.39
1.50
1.56
1.70
1.99
2.43
2.92
3.30
3.41
3.19
2.64
1.89
1.11
0.46
0.04
-0.13
-0.05
0.23
0.66
1.18
1.68
2.04
2.14
1.88
1.30
0.52
-0.24
-0.72
-0.74
-0.27
0.58
1.58
2.46
3.00
3.04
2.54
1.55
0.18
-1.38
-2.88
-4.05
-4.63
-4.53
-3.88
-2.94
-2.07
-1.57
-1.54
-1.90
-2.45
-2.99
-3.41
-3.71
-3.92
-4.03
-3.98
-3.68
-3.07
-2.26
-1.49
-1.03
-1.13
-1.81
-2.89
-4.02
-4.84
-5.07
-4.64
-3.65
-2.33
-0.92
0.37
1.43
2.21
2.69
2.86
2.70
2.25
1.59
0.88
0.31
0.01
0.06
0.39
0.85
1.29
1.58
1.66
1.55
1.29
0.98
0.69
0.52
0.54
0.77
1.20
1.76
2.37
2.95
3.45
3.81
4.03
4.09
4.00
3.81
3.61
3.48
3.45
3.54
3.67
3.77
3.75
3.57
3.18
2.59
1.81
0.87
-0.13
-1.09
-1.87
-2.38
-2.63
-2.74
-2.86
-3.10
-3.53
-4.09
-4.65
-5.10
-5.34
-5.36
-5.14
-4.72
-4.09
-3.29
-2.37
-1.47
-0.76
-0.40
-0.45
-0.84
-1.38
-1.81
-1.96
-1.75
-1.23
-0.53
0.20
0.90
1.55
2.24
3.01
3.81
4.50
4.87
4.72
4.06
3.07
2.11
1.55
1.58
2.13
2.94
3.65
4.03
4.02
3.72
3.27
2.77
2.26
1.75
1.30
0.98
0.89
1.05
1.44
1.96
2.48
2.91
3.16
3.20
3.02
2.62
2.02
1.31
0.59
-0.04
-0.55
-0.96
-1.36
-1.83
-2.40
-3.07
-3.80
-4.60
-5.50
-6.51
-7.62
-8.72
-9.61
-10.16
-10.30
-10.10
-9.67
-9.05
-8.13
-6.74
-4.70
-2.03
1.02
4.06
6.69
8.67
9.95
10.66
10.92
10.85
10.45
9.76
8.87
7.91
7.01
6.14
5.16
3.87
2.16
0.11
-1.99
-3.87
-5.39
-6.72
-8.19
-10.15
-12.74
-15.82
-18.96
-21.72
-23.82
-25.30
-26.56
-28.19
-30.71
-34.31
-38.69
-43.12
-46.76
-49.04
-50.09
-50.71
-52.14
-55.44
-60.94
-68.00
-75.31
-81.40
-85.29
-86.92
-87.08
-87.12
-88.58
-92.80
-100.46
-111.15
-122.87
-131.84
-133.10
-121.92
-95.80
-56.06
-8.08
40.13
80.64
108.25
121.86
123.99
118.94
110.60
101.19
91.34
81.07
70.82
61.80
55.47
52.67
52.97
54.66
55.62
54.28
50.34
44.75
39.30
35.57
34.24
34.84
36.14
36.85
36.35
34.95
33.60
33.28
34.35
36.42
38.55
39.80
39.67
38.28
36.15
33.89
31.96
30.51
29.47
28.61
27.62
26.22
24.13
21.20
17.45
13.09
8.50
4.12
0.34
-2.61
-4.77
-6.42
-8.00
-9.90
-12.28
-14.97
-17.53
-19.48
-20.58
-20.92
-20.92
-21.07
-21.67
-22.68
-23.67
-23.94
-22.77
-19.61
-14.35
-7.38
0.39
7.81
13.82
17.82
19.81
20.31
20.01
19.49
18.97
18.40
17.64
16.67
15.59
14.54
13.65
13.08
13.14
14.32
17.12
21.75
27.85
34.50
40.51
44.95
47.51
48.51
48.71
48.84
49.33
50.27
51.54
52.99
54.60
56.47
58.76
61.57
64.92
68.68
72.55
76.09
78.86
80.55
81.23
81.40
81.95
83.96
88.38
95.56
104.81
114.07
120.13
119.15
107.71
83.61
46.46
-2.14
-58.64
-118.09
-174.90
-223.95
-261.83
-287.56
-302.65
-310.18
-313.40
-314.57
-314.49
-313.05
-310.15
-306.25
-302.21
-298.40
-294.00
-286.84
-274.18
-253.86
-225.19
-188.89
-146.45
-99.30
-48.47
4.89
58.74
109.53
152.73
184.19
201.69
205.93
200.24
189.20
176.94
166.00
157.18
150.22
144.73
140.73
138.53
138.34
139.85
142.23
144.38
145.40
144.87
143.06
140.68
138.61
137.53
137.69
138.89
140.63
142.37
143.79
144.88
145.87
147.09
148.99
152.18
157.22
164.30
172.59
179.83
182.57
176.96
159.94
130.19
88.60
37.99
-17.40
-72.57
-122.31
-161.97
-188.25
-200.10
-199.05
-188.78
-173.83
-158.07
-143.59
-130.57
-118.04
-104.93
-90.70
-75.64
-60.48
-46.20
-33.88
-24.69
-19.67
-19.34
-23.25
-29.86
-36.86
-41.93
-43.51
-41.19
-35.58
-27.73
-18.59
-8.78
1.26
11.00
19.66
26.43
30.86
33.11
34.09
35.07
37.40
42.07
49.45
58.85
68.24
74.23
72.92
61.31
38.88
8.46
-24.50
-53.79
-74.78
-86.00
-89.06
-87.26
-83.70
-80.00
-76.26
-71.95
-66.91
-61.74
-57.43
-54.57
-52.90
-51.40
-48.91
-44.82
-39.33
-33.45
-28.38
-25.04
-23.69
-23.89
-24.81
-25.58
-25.64
-24.87
-23.57
-22.20
-21.14
-20.47
-19.97
-19.16
-17.57
-14.90
-11.20
-6.82
-2.35
1.51
4.17
5.31
4.95
3.54
1.75
0.20
-0.76
-1.18
-1.43
-1.87
-2.68
-3.72
-4.70
-5.39
-5.59
-4.95
-2.76
2.01
10.21
21.98
36.31
51.29
64.84
75.55
83.03
87.57
89.42
88.22
83.14
73.55
59.80
43.56
27.32
13.45
3.32
-3.05
-6.69
-9.01
-11.22
-13.97
-17.35
-21.05
-24.61
-27.57
-29.60
-30.55
-30.47
-29.45
-27.54
-24.82
-21.43
-17.73
-14.20
-11.33
-9.33
-8.06
-7.08
-5.93
-4.38
-2.50
-0.56
1.13
2.37
3.15
3.49
3.45
3.05
2.34
1.50
0.73
0.22
0.04
0.08
0.19
0.23
0.19
0.15
0.25
0.53
0.94
1.36
1.63
1.63
1.30
0.62
-0.42
-1.81
-3.54
-5.53
-7.67
-9.82
-11.86
-13.71
-15.38
-16.90
-18.28
-19.50
-20.53
-21.29
-21.71
-21.75
-21.34
-20.42
-18.90
-16.71
-13.83
-10.37
-6.57
-2.72
0.87
3.96
6.40
8.14
9.17
9.55
9.38
8.78
7.87
6.73
5.40
3.86
2.13
0.28
-1.58
-3.26
-4.68
-5.81
-6.76
-7.67
-8.62
-9.62
-10.59
-11.40
-11.94
-12.14
-11.98
-11.51
-10.86
-10.15
-9.53
-9.07
-8.67
-8.14
-7.28
-6.02
-4.49
-2.95
-1.67
-0.73
0.04
0.99
2.49
4.75
7.75
11.20
14.64
17.62
19.79
20.97
21.21
20.73
19.85
18.86
17.92
16.99
15.86
14.24
11.85
8.58
4.46
-0.29
-5.31
-10.22
-14.63
-18.26
-20.98
-22.83
-24.02
-24.77
-25.30
-25.72
-26.06
-26.23
-26.15
-25.71
-24.84
-23.60
-22.24
-21.16
-20.86
-21.68
-23.58
-26.11
-28.52
-30.06
-30.37
-29.52
-28.05
-26.65
-25.89
-26.06
-27.12
-28.87
-31.09
-33.73
-36.98
-41.20
-46.70
-53.40
-60.52
-66.66
-70.25
-70.23
-66.81
-61.55
-56.86
-55.17
-58.10
-66.14
-78.67
-94.28
-110.79
-125.30
-134.41
-135.05
-125.79
-107.71
-84.16
-59.20
-35.52
-13.23
9.52
34.63
61.94
88.49
109.83
122.40
125.55
121.85
115.55
110.37
107.95
107.71
107.92
107.24
105.42
103.07
101.00
99.53
98.23
96.19
92.63
87.27
80.55
73.45
67.06
62.14
58.77
56.34
53.87
50.46
45.72
39.97
33.99
28.67
24.60
21.85
20.04
18.57
16.92
14.88
12.54
10.22
8.27
6.93
6.20
5.93
5.86
5.76
5.53
5.19
4.83
4.53
4.35
4.27
4.31
4.49
4.85
5.40
6.12
6.92
7.70
8.40
9.03
9.63
10.25
10.92
11.66
12.43
13.26
14.18
15.23
16.46
17.88
19.48
21.23
23.10
25.11
27.31
29.80
32.65
35.96
39.72
43.89
48.38
53.01
57.66
62.25
66.88
71.84
77.49
84.08
91.42
98.98
105.93
111.69
116.49
121.43
128.08
137.48
149.14
160.88
169.28
170.85
162.98
144.56
116.03
79.47
38.44
-2.24
-37.15
-61.56
-72.77
-71.19
-60.53
-46.88
-36.91
-35.88
-46.11
-66.44
-92.84
-119.85
-142.26
-156.65
-162.21
-160.26
-153.29
-143.66
-132.92
-121.90
-111.27
-101.96
-94.98
-90.84
-88.91
-87.45
-84.30
-77.93
-68.30
-56.90
-46.12
-38.14
-33.90
-32.75
-32.92
-32.42
-30.02
-25.72
-20.58
-16.06
-13.36
-12.94
-14.58
-17.52
-20.88
-23.89
-26.04
-27.00
-26.67
-25.12
-22.58
-19.45
-16.23
-13.28
-10.86
-8.99
-7.58
-6.63
-6.20
-6.43
-7.36
-8.96
-11.08
-13.69
-16.93
-21.05
-26.17
-32.07
-38.11
-43.54
-47.90
-51.31
-54.48
-58.27
-63.23
-69.25
-75.65
-81.61
-86.63
-90.71
-94.38
-98.29
-102.91
-108.33
-114.29
-120.43
-126.67
-133.49
-141.73
-151.93
-163.51
-174.17
-180.12
-177.10
-161.83
-133.13
-92.20
-42.29
12.20
66.40
115.66
156.06
184.99
201.70
207.49
205.32
198.70
190.57
182.50
174.72
166.78
158.40
149.73
141.39
133.99
127.78
122.60
118.04
113.74
109.58
105.82
103.03
101.85
102.71
105.47
109.42
113.33
115.90
116.27
114.49
111.75
110.23
112.42
119.95
132.48
147.03
158.44
160.81
149.46
122.40
80.83
28.63
-28.74
-85.47
-136.15
-176.51
-204.09
-218.85
-223.13
-220.60
-214.53
-205.82
-192.37
-170.09
-135.31
-87.35
-29.50
32.03
90.66
141.82
183.78
216.65
240.40
253.55
253.29
237.03
204.26
157.39
101.32
41.95
-15.32
-66.42
-108.81
-141.05
-162.66
-174.11
-176.87
-173.24
-165.75
-156.70
-147.76
-140.07
-134.39
-131.06
-130.00
-130.61
-131.89
-132.88
-133.04
-132.54
-132.00
-132.23
-133.71
-136.30
-139.27
-141.60
-142.37
-141.22
-138.48
-135.20
-132.84
-132.92
-136.66
-144.49
-155.66
-168.00
-178.08
-181.88
-175.84
-157.83
-127.62
-86.75
-38.02
14.98
68.21
117.27
157.89
186.74
202.36
205.75
200.12
189.75
178.55
168.90
161.36
155.18
149.16
142.40
134.56
125.80
116.52
107.12
97.96
89.28
81.20
73.83
67.23
61.47
56.51
52.20
48.29
44.47
40.52
36.45
32.45
28.79
25.70
23.25
21.32
19.68
18.06
16.28
14.34
12.35
10.51
8.95
7.72
6.72
5.76
4.69
3.43
2.00
0.52
-0.88
-2.09
-3.03
-3.64
-3.88
-3.74
-3.24
-2.51
-1.70
-0.96
-0.35
0.11
0.45
0.69
0.86
0.96
1.03
1.16
1.44
1.92
2.60
3.37
4.13
4.76
5.20
5.43
5.46
5.33
5.09
4.80
4.53
4.33
4.17
3.99
3.68
3.19
2.52
1.77
1.05
0.48
0.14
0.09
0.37
0.93
1.68
2.45
3.04
3.31
3.23
2.93
2.63
2.57
2.87
3.49
4.20
4.60
4.19
2.53
-0.55
-4.88
-9.88
-14.75
-18.75
-21.41
-22.67
-22.79
-22.23
-21.35
-20.39
-19.46
-18.53
-17.55
-16.45
-15.08
-13.28
-10.91
-7.92
-4.44
-0.73
2.84
5.95
8.36
10.00
10.95
11.35
11.38
11.18
10.87
10.54
10.25
9.99
9.67
9.21
8.51
7.59
6.56
5.56
4.68
3.88
3.02
1.97
0.71
-0.65
-1.92
-2.93
-3.61
-3.99
-4.17
-4.24
-4.22
-4.10
-3.87
-3.55
-3.17
-2.76
-2.28
-1.69
-0.92
0.03
1.13
2.27
3.39
4.39
5.24
5.93
6.47
6.90
7.27
7.65
8.07
8.54
9.02
9.48
9.88
10.24
10.57
10.90
11.18
11.36
11.34
11.07
10.52
9.67
8.42
6.64
4.14
0.82
-3.19
-7.47
-11.34
-14.09
-15.22
-14.60
-12.54
-9.61
-6.40
-3.33
-0.55
1.97
4.30
6.48
8.46
10.20
11.76
13.24
14.58
15.42
15.12
13.00
8.76
2.80
-3.69
-9.10
-11.98
-11.54
-7.94
-2.09
4.72
11.32
16.95
21.30
24.34
26.18
27.01
27.11
26.94
27.07
28.02
30.14
33.43
37.56
42.06
46.52
50.83
55.20
60.04
65.70
72.29
79.64
87.38
95.18
102.87
110.49
118.18
126.10
134.45
143.56
153.80
165.31
177.43
188.29
194.90
193.82
182.32
159.39
125.89
83.94
36.04
-15.52
-68.40
-119.66
-165.49
-201.74
-225.27
-235.28
-233.80
-224.93
-213.19
-201.84
-192.19
-183.93
-176.16
-168.33
-160.55
-153.32
-146.89
-141.03
-135.01
-128.16
-120.20
-111.50
-102.96
-95.55
-89.92
-86.04
-83.30
-80.74
-77.59
-73.58
-69.15
-65.24
-62.97
-63.19
-66.21
-71.74
-79.04
-87.19
-95.46
-103.47
-111.36
-119.85
-129.91
-142.26
-156.66
-171.30
-182.82
-187.01
-180.12
-159.97
-126.70
-82.65
-31.79
21.13
71.36
114.71
148.06
169.71
179.71
179.78
172.85
162.22
150.70
140.09
131.12
123.72
117.47
111.82
106.32
100.68
94.78
88.71
82.72
77.11
72.17
68.08
64.80
62.09
59.49
56.53
52.92
48.70
44.26
40.22
37.10
35.04
33.78
32.76
31.39
29.39
26.79
23.91
21.12
18.67
16.65
14.97
13.55
12.34
11.38
10.69
10.25
9.93
9.59
9.13
8.64
8.38
8.66
9.64
11.16
12.69
13.51
13.01
11.03
8.01
4.89
2.79
2.53
4.34
7.69
11.53
14.67
16.34
16.51
16.00
16.13
18.19
22.69
29.06
35.75
40.82
42.77
41.27
37.48
33.65
32.43
35.71
43.64
54.04
62.47
63.03
49.77
18.70
-30.21
-91.82
-156.20
-210.73
-243.60
-247.32
-221.07
-170.82
-107.18
-41.96
15.14
58.59
87.21
103.02
109.59
110.60
109.23
107.99
108.78
112.78
120.25
130.47
141.84
152.31
160.26
165.17
167.96
170.74
176.02
185.61
199.54
215.41
228.82
234.61
228.55
208.82
176.52
135.00
88.45
40.35
-7.17
-53.02
-96.16
-134.91
-166.86
-189.80
-202.67
-206.21
-202.62
-194.70
-184.75
-174.08
-163.03
-151.56
-139.73
-127.99
-117.01
-107.34
-99.21
-92.48
-86.81
-81.80
-77.05
-72.23
-67.07
-61.45
-55.50
-49.59
-44.17
-39.54
-35.67
-32.16
-28.47
-24.19
-19.25
-14.06
-9.26
-5.43
-2.80
-1.10
0.30
2.19
5.10
9.10
13.76
18.31
22.12
24.91
26.99
29.10
32.15
36.77
43.07
50.64
58.69
66.31
72.88
78.22
82.79
87.63
94.26
104.18
118.04
134.75
151.11
162.02
161.83
146.20
113.90
67.75
14.11
-38.95
-84.07
-116.67
-135.71
-143.22
-142.74
-137.82
-130.96
-123.50
-116.08
-109.24
-103.68
-100.05
-98.57
-98.63
-98.95
-98.18
-95.50
-91.08
-85.99
-81.72
-79.55
-79.94
-82.51
-86.27
-90.10
-93.16
-95.18
-96.41
-97.45
-99.02
-101.73
-105.86
-111.28
-117.35
-123.08
-127.47
-129.90
-130.48
-130.06
-129.93
-131.40
-135.49
-142.86
-153.64
-167.31
-182.32
-195.95
-204.72
-205.30
-195.49
-174.94
-144.92
-107.31
-63.74
-15.58
35.28
85.63
130.96
166.75
190.37
202.41
206.28
206.80
208.02
211.71
217.06
221.14
219.49
206.92
178.59
131.95
68.92
-2.91
-71.37
-122.99
-147.49
-141.21
-107.83
-56.48
1.77
57.06
102.69
135.26
154.05
160.16
156.07
145.19
131.35
118.11
108.05
102.27
100.51
101.58
103.71
105.29
105.28
103.52
100.68
97.95
96.49
97.02
99.47
103.14
107.06
110.37
112.71
114.16
115.20
116.39
118.23
121.04
124.94
129.93
135.92
142.79
150.49
159.05
168.45
178.40
187.77
194.53
195.94
189.29
172.77
146.17
110.74
68.50
21.42
-28.82
-80.41
-130.65
-175.57
-210.65
-232.20
-238.94
-232.62
-217.42
-198.30
-179.23
-162.24
-147.54
-134.47
-122.53
-111.84
-102.94
-96.15
-91.06
-86.59
-81.50
-75.03
-67.35
-59.55
-53.05
-48.90
-47.23
-47.18
-47.36
-46.51
-44.06
-40.25
-35.92
-32.01
-29.16
-27.47
-26.60
-26.04
-25.32
-24.26
-23.00
-21.91
-21.40
-21.67
-22.61
-23.77
-24.44
-23.93
-21.76
-17.89
-12.68
-6.83
-1.15
3.60
6.83
8.24
7.75
5.62
2.32
-1.50
-5.20
-8.34
-10.78
-12.67
-14.36
-16.10
-17.96
-19.72
-20.99
-21.44
-20.99
-19.93
-18.88
-18.50
-19.31
-21.35
-24.22
-27.26
-29.88
-31.91
-33.77
-36.31
-40.38
-46.41
-54.05
-62.30
-69.81
-75.52
-79.27
-81.92
-85.12
-90.75
-100.12
-113.29
-128.78
-143.78
-154.68
-157.93
-151.05
-133.64
-107.98
-78.90
-52.59
-34.39
-26.37
-26.07
-27.25
-22.74
-7.96
16.71
45.99
72.15
88.49
91.96
84.13
70.24
57.23
51.57
57.57
76.53
106.31
142.11
177.87
208.10
229.45
241.34
245.30
243.67
238.49
231.16
222.96
215.57
211.08
211.07
215.42
221.62
225.23
221.26
206.03
178.45
139.88
93.15
41.00
-14.60
-72.17
-129.64
-183.60
-229.60
-263.57
-283.44
-290.17
-287.34
-279.62
-271.08
-264.11
-259.32
-255.88
-252.01
-245.35
-233.44
-214.20
-186.80
-152.32
-113.69
-74.94
-39.90
-11.24
9.98
23.87
31.10
32.51
29.36
23.72
18.57
17.19
21.93
33.15
48.90
65.74
80.24
90.29
95.70
97.65
97.61
96.50
94.33
90.71
85.49
79.08
72.39
66.35
61.42
57.48
53.95
50.10
45.56
40.43
35.29
31.00
28.27
27.39
28.01
29.28
30.15
29.86
28.18
25.46
22.41
19.73
17.78
16.56
15.75
15.04
14.22
13.28
12.26
11.21
10.09
8.83
7.42
5.93
4.57
3.59
3.14
3.22
3.69
4.28
4.79
5.08
5.21
5.26
5.36
5.57
5.91
6.35
6.87
7.43
7.98
8.39
8.50
8.21
7.50
6.48
5.37
4.39
3.66
3.23
2.99
2.80
2.51
2.06
1.45
0.82
0.32
0.08
0.10
0.28
0.41
0.38
0.15
-0.18
-0.45
-0.53
-0.39
-0.11
0.19
0.38
0.46
0.44
0.40
0.37
0.36
0.34
0.29
0.22
0.16
0.18
0.31
0.56
0.85
1.11
1.26
1.26
1.12
0.91
0.69
0.53
0.46
0.49
0.59
0.70
0.74
0.69
0.58
0.46
0.42
0.45
0.50
0.52
0.46
0.39
0.44
0.70
1.17
1.64
1.79
1.36
0.24
-1.37
-3.08
-4.49
-5.32
-5.56
-5.37
-4.95
-4.40
-3.70
-2.79
-1.68
-0.54
0.38
0.91
1.06
1.03
1.05
1.21
1.43
1.50
1.24
0.67
-0.04
-0.62
-0.91
-0.89
-0.68
-0.41
-0.17
0.08
0.38
0.74
1.03
1.11
0.90
0.44
-0.10
-0.51
-0.66
-0.56
-0.34
-0.17
-0.17
-0.30
-0.46
-0.55
-0.49
-0.33
-0.09
0.16
0.45
0.82
1.31
1.90
2.53
3.08
3.47
3.65
3.60
3.35
2.94
2.41
1.82
1.22
0.67
0.21
-0.13
-0.37
-0.55
-0.73
-0.93
-1.17
-1.42
-1.64
-1.80
-1.87
-1.84
-1.72
-1.50
-1.21
-0.90
-0.57
-0.27
-0.02
0.18
0.31
0.37
0.35
0.25
0.10
-0.06
-0.19
-0.23
-0.18
-0.09
0.01
0.04
0.01
-0.06
-0.10
-0.05
0.10
0.29
0.45
0.49
0.39
0.19
-0.01
-0.12
-0.08
0.11
0.39
0.67
0.87
0.92
0.84
0.67
0.47
0.31
0.21
0.15
0.10
0.04
-0.02
-0.08
-0.12
-0.17
-0.25
-0.38
-0.54
-0.69
-0.76
-0.73
-0.57
-0.31
-0.02
0.24
0.40
0.45
0.43
0.40
0.41
0.47
0.54
0.54
0.44
0.25
0.03
-0.14
-0.25
-0.30
-0.31
-0.30
-0.23
-0.10
0.07
0.18
0.13
-0.12
-0.53
-0.96
-1.29
-1.43
-1.35
-1.09
-0.73
-0.36
-0.05
0.15
0.22
0.16
0.04
-0.10
-0.20
-0.28
-0.34
-0.42
-0.49
-0.55
-0.55
-0.50
-0.41
-0.28
-0.14
0.04
0.25
0.50
0.72
0.87
0.88
0.75
0.50
0.19
-0.09
-0.26
-0.29
-0.17
0.05
0.28
0.43
0.48
0.42
0.29
0.17
0.09
0.06
0.03
-0.05
-0.20
-0.43
-0.65
-0.77
-0.69
-0.40
0.03
0.49
0.82
0.93
0.82
0.56
0.25
-0.04
-0.29
-0.51
-0.71
-0.88
-0.96
-0.91
-0.72
-0.47
-0.23
-0.08
0.01
0.09
0.22
0.43
0.66
0.81
0.83
0.71
0.53
0.37
0.28
0.25
0.22
0.14
0.03
-0.05
-0.02
0.10
0.23
0.24
0.06
-0.30
-0.72
-1.03
-1.14
-1.05
-0.87
-0.70
-0.60
-0.53
-0.44
-0.29
-0.08
0.12
0.24
0.26
0.22
0.19
0.21
0.25
0.30
0.33
0.33
0.34
0.38
0.46
0.55
0.61
0.60
0.52
0.36
0.14
-0.07
-0.23
-0.31
-0.26
-0.11
0.09
0.29
0.40
0.39
0.27
0.07
-0.15
-0.32
-0.44
-0.51
-0.56
-0.62
-0.71
-0.79
-0.80
-0.70
-0.49
-0.21
0.04
0.17
0.18
0.09
-0.00
-0.01
0.07
0.20
0.27
0.21
0.05
-0.16
-0.33
-0.41
-0.46
-0.53
-0.68
-0.85
-0.94
-0.85
-0.59
-0.23
0.09
0.26
0.31
0.33
0.41
0.60
0.83
0.99
0.99
0.82
0.52
0.20
-0.05
-0.20
-0.22
-0.14
0.03
0.23
0.42
0.54
0.57
0.52
0.39
0.23
0.06
-0.09
-0.19
-0.22
-0.16
-0.05
0.05
0.07
-0.03
-0.22
-0.41
-0.48
-0.38
-0.13
0.16
0.37
0.39
0.20
-0.16
-0.60
-0.99
-1.18
-1.11
-0.77
-0.23
0.31
0.68
0.77
0.58
0.20
-0.19
-0.43
-0.44
-0.24
0.09
0.40
0.56
0.50
0.25
-0.11
-0.46
-0.68
-0.72
-0.61
-0.41
-0.17
0.02
0.14
0.15
0.08
-0.05
-0.16
-0.17
-0.03
0.23
0.51
0.73
0.80
0.72
0.54
0.33
0.14
0.01
-0.04
-0.03
0.03
0.12
0.23
0.32
0.40
0.43
0.40
0.30
0.14
-0.05
-0.22
-0.32
-0.31
-0.22
-0.13
-0.13
-0.25
-0.45
-0.62
-0.66
-0.51
-0.25
0.04
0.22
0.26
0.17
0.01
-0.16
-0.33
-0.50
-0.65
-0.73
-0.69
-0.51
-0.22
0.09
0.32
0.41
0.41
0.37
0.36
0.41
0.47
0.46
0.33
0.08
-0.18
-0.35
-0.34
-0.18
0.03
0.14
0.09
-0.10
-0.32
-0.47
-0.49
-0.41
-0.32
-0.29
-0.36
-0.44
-0.46
-0.33
-0.06
0.30
0.64
0.88
1.00
1.03
1.03
1.04
1.07
1.07
0.97
0.74
0.38
-0.02
-0.35
-0.53
-0.53
-0.42
-0.31
-0.30
-0.39
-0.56
-0.70
-0.70
-0.54
-0.24
0.07
0.28
0.30
0.15
-0.11
-0.35
-0.51
-0.56
-0.53
-0.45
-0.34
-0.17
0.07
0.35
0.60
0.72
0.63
0.37
0.03
-0.25
-0.38
-0.34
-0.14
0.17
0.56
0.97
1.31
1.49
1.45
1.21
0.85
0.52
0.32
0.26
0.24
0.14
-0.05
-0.25
-0.32
-0.16
0.18
0.52
0.65
0.46
0.02
-0.45
-0.69
-0.60
-0.25
0.16
0.41
0.41
0.25
0.06
-0.03
-0.03
0.01
-0.03
-0.20
-0.50
-0.87
-1.24
-1.54
-1.70
-1.66
-1.41
-0.99
-0.53
-0.19
-0.07
-0.19
-0.44
-0.72
-0.93
-1.08
-1.25
-1.46
-1.68
-1.85
-1.89
-1.82
-1.71
-1.62
-1.57
-1.52
-1.38
-1.12
-0.81
-0.54
-0.40
-0.43
-0.57
-0.76
-0.95
-1.12
-1.27
-1.40
-1.48
-1.49
-1.44
-1.36
-1.32
-1.31
-1.31
-1.18
-0.79
-0.06
1.00
2.25
3.48
4.47
5.10
5.34
5.27
4.96
4.48
3.85
3.06
2.15
1.21
0.37
-0.24
-0.57
-0.66
-0.62
-0.58
-0.65
-0.88
-1.25
-1.72
-2.18
-2.55
-2.76
-2.81
-2.74
-2.65
-2.66
-2.81
-3.11
-3.50
-3.94
-4.38
-4.86
-5.37
-5.94
-6.51
-7.03
-7.39
-7.50
-7.28
-6.73
-5.88
-4.84
-3.72
-2.65
-1.73
-1.06
-0.69
-0.63
-0.79
-0.99
-1.08
-0.95
-0.62
-0.22
0.13
0.43
0.83
1.52
2.66
4.20
5.89
7.36
8.32
8.64
8.41
7.82
7.14
6.52
6.05
5.70
5.41
5.12
4.79
4.45
4.15
3.95
3.84
3.77
3.62
3.28
2.73
2.03
1.33
0.80
0.53
0.51
0.63
0.77
0.82
0.82
0.82
0.92
1.12
1.30
1.32
1.07
0.53
-0.15
-0.77
-1.16
-1.26
-1.15
-0.94
-0.75
-0.61
-0.51
-0.40
-0.32
-0.27
-0.28
-0.35
-0.40
-0.40
-0.34
-0.24
-0.15
-0.10
-0.07
-0.01
0.09
0.23
0.36
0.46
0.50
0.54
0.59
0.64
0.67
0.61
0.46
0.26
0.09
0.07
0.21
0.47
0.71
0.77
0.58
0.19
-0.25
-0.55
-0.59
-0.37
-0.01
0.33
0.54
0.59
0.53
0.45
0.36
0.26
0.11
-0.11
-0.33
-0.44
-0.38
-0.14
0.17
0.38
0.35
0.07
-0.38
-0.81
-1.08
-1.12
-0.99
-0.80
-0.65
-0.55
-0.48
-0.37
-0.20
0.02
0.21
0.34
0.37
0.31
0.19
0.03
-0.17
-0.39
-0.61
-0.78
-0.86
-0.82
-0.66
-0.41
-0.11
0.18
0.41
0.55
0.59
0.54
0.43
0.30
0.19
0.12
0.08
0.06
0.07
0.10
0.17
0.25
0.31
0.31
0.19
-0.01
-0.23
-0.39
-0.41
-0.29
-0.07
0.13
0.25
0.23
0.11
-0.05
-0.17
-0.18
-0.05
0.19
0.46
0.66
0.73
0.66
0.49
0.30
0.16
0.09
0.07
0.04
-0.02
-0.10
-0.18
-0.23
-0.26
-0.29
-0.36
-0.46
-0.57
-0.63
-0.60
-0.48
-0.33
-0.20
-0.14
-0.19
-0.31
-0.45
-0.54
-0.51
-0.35
-0.09
0.19
0.40
0.51
0.49
0.38
0.25
0.11
-0.02
-0.11
-0.16
-0.16
-0.09
0.03
0.17
0.27
0.33
0.34
0.34
0.37
0.44
0.55
0.70
0.82
0.88
0.83
0.66
0.38
0.04
-0.26
-0.47
-0.57
-0.61
-0.63
-0.68
-0.73
-0.77
-0.75
-0.64
-0.45
-0.23
0.00
0.18
0.27
0.27
0.21
0.12
0.02
-0.07
-0.19
-0.33
-0.48
-0.61
-0.69
-0.71
-0.70
-0.67
-0.62
-0.53
-0.37
-0.13
0.16
0.45
0.67
0.80
0.84
0.81
0.73
0.63
0.52
0.45
0.46
0.55
0.70
0.83
0.86
0.73
0.44
0.05
-0.34
-0.62
-0.71
-0.58
-0.26
0.16
0.56
0.80
0.80
0.56
0.18
-0.19
-0.41
-0.43
-0.30
-0.11
0.04
0.10
0.10
0.10
0.12
0.14
0.08
-0.15
-0.52
-0.92
-1.20
-1.25
-1.06
-0.74
-0.45
-0.32
-0.37
-0.55
-0.76
-0.92
-0.99
-0.98
-0.89
-0.72
-0.44
-0.11
0.23
0.47
0.55
0.48
0.36
0.30
0.39
0.64
0.92
1.07
0.98
0.69
0.32
0.06
0.01
0.15
0.37
0.52
0.56
0.52
0.49
0.53
0.61
0.64
0.55
0.33
0.07
-0.08
-0.05
0.17
0.47
0.70
0.75
0.55
0.16
-0.28
-0.65
-0.85
-0.87
-0.74
-0.56
-0.39
-0.32
-0.34
-0.42
-0.49
-0.50
-0.39
-0.18
0.08
0.30
0.39
0.30
0.05
-0.30
-0.63
-0.84
-0.85
-0.65
-0.30
0.10
0.44
0.66
0.71
0.62
0.46
0.26
0.07
-0.09
-0.19
-0.25
-0.26
-0.25
-0.25
-0.24
-0.15
0.05
0.39
0.82
1.22
1.45
1.43
1.16
0.70
0.19
-0.26
-0.56
-0.66
-0.56
-0.29
0.07
0.44
0.69
0.76
0.64
0.41
0.18
0.02
-0.02
0.03
0.13
0.22
0.31
0.40
0.50
0.58
0.61
0.59
0.55
0.56
0.68
0.92
1.18
1.35
1.36
1.24
1.08
1.00
1.03
1.12
1.16
1.10
0.99
0.91
0.96
1.11
1.26
1.28
1.10
0.82
0.62
0.69
1.03
1.51
1.90
2.03
1.85
1.47
1.09
0.87
0.90
1.13
1.47
1.82
2.11
2.30
2.38
2.36
2.25
2.07
1.87
1.71
1.65
1.74
1.94
2.19
2.41
2.54
2.56
2.46
2.26
1.98
1.58
1.09
0.55
0.08
-0.18
-0.17
0.07
0.37
0.49
0.25
-0.37
-1.22
-2.02
-2.55
-2.71
-2.59
-2.40
-2.35
-2.52
-2.85
-3.17
-3.32
-3.24
-3.00
-2.74
-2.59
-2.62
-2.76
-2.89
-2.87
-2.63
-2.21
-1.75
-1.40
-1.30
-1.46
-1.79
-2.11
-2.22
-2.07
-1.68
-1.24
-0.93
-0.87
-1.02
-1.25
-1.36
-1.27
-1.00
-0.68
-0.41
-0.21
-0.04
0.17
0.42
0.61
0.61
0.36
-0.07
-0.47
-0.66
-0.56
-0.26
0.06
0.24
0.20
0.01
-0.22
-0.42
-0.59
-0.78
-1.00
-1.18
-1.24
-1.14
-0.92
-0.74
-0.72
-0.92
-1.27
-1.62
-1.82
-1.81
-1.65
-1.41
-1.18
-1.01
-0.90
-0.84
-0.86
-0.97
-1.15
-1.35
-1.47
-1.45
-1.29
-1.05
-0.82
-0.68
-0.62
-0.57
-0.45
-0.23
0.05
0.30
0.45
0.44
0.31
0.10
-0.14
-0.34
-0.44
-0.42
-0.25
0.06
0.41
0.70
0.82
0.74
0.51
0.22
0.00
-0.07
-0.02
0.09
0.19
0.22
0.21
0.22
0.31
0.49
0.71
0.86
0.89
0.76
0.52
0.25
0.05
-0.06
-0.08
-0.08
-0.13
-0.27
-0.47
-0.67
-0.80
-0.81
-0.69
-0.48
-0.23
0.04
0.28
0.47
0.59
0.58
0.40
0.09
-0.28
-0.56
-0.64
-0.49
-0.16
0.24
0.55
0.70
0.68
0.53
0.31
0.09
-0.09
-0.19
-0.18
-0.07
0.13
0.36
0.56
0.67
0.64
0.49
0.25
-0.01
-0.25
-0.43
-0.55
-0.60
-0.60
-0.54
-0.41
-0.22
0.01
0.25
0.44
0.50
0.41
0.17
-0.18
-0.54
-0.82
-0.97
-0.97
-0.86
-0.68
-0.47
-0.27
-0.11
-0.04
-0.10
-0.31
-0.61
-0.89
-1.04
-0.99
-0.76
-0.45
-0.15
0.07
0.23
0.36
0.50
0.63
0.67
0.59
0.37
0.12
-0.04
0.01
0.28
0.68
1.05
1.25
1.21
0.96
0.62
0.30
0.10
0.01
0.01
0.04
0.04
0.01
-0.01
0.00
0.06
0.13
0.16
0.09
-0.09
-0.30
-0.47
-0.53
-0.48
-0.41
-0.40
-0.54
-0.79
-1.03
-1.13
-1.00
-0.64
-0.15
0.30
0.62
0.76
0.77
0.75
0.77
0.86
0.98
1.08
1.15
1.18
1.19
1.19
1.15
1.02
0.76
0.38
-0.07
-0.47
-0.76
-0.89
-0.85
-0.71
-0.52
-0.34
-0.20
-0.11
-0.06
-0.02
0.05
0.15
0.24
0.29
0.26
0.15
-0.01
-0.17
-0.28
-0.33
-0.31
-0.25
-0.17
-0.11
-0.06
-0.02
0.04
0.11
0.17
0.19
0.13
-0.01
-0.18
-0.29
-0.27
-0.09
0.19
0.49
0.72
0.81
0.76
0.59
0.32
0.01
-0.28
-0.46
-0.45
-0.24
0.10
0.43
0.60
0.56
0.33
0.02
-0.26
-0.46
-0.59
-0.66
-0.67
-0.59
-0.40
-0.14
0.12
0.27
0.28
0.16
-0.02
-0.17
-0.22
-0.20
-0.12
-0.03
0.08
0.21
0.34
0.41
0.38
0.23
0.01
-0.19
-0.26
-0.14
0.13
0.42
0.64
0.69
0.59
0.42
0.25
0.12
0.01
-0.13
-0.32
-0.53
-0.70
-0.78
-0.74
-0.61
-0.41
-0.20
0.03
0.24
0.43
0.56
0.57
0.46
0.25
0.02
-0.15
-0.21
-0.14
0.04
0.27
0.50
0.62
0.56
0.27
-0.23
-0.84
-1.40
-1.71
-1.68
-1.31
-0.73
-0.13
0.34
0.60
0.64
0.54
0.36
0.14
-0.10
-0.37
-0.65
-0.91
-1.09
-1.19
-1.18
-1.09
-0.95
-0.80
-0.65
-0.52
-0.41
-0.32
-0.25
-0.22
-0.26
-0.39
-0.61
-0.85
-1.02
-1.04
-0.87
-0.57
-0.27
-0.14
-0.24
-0.55
-0.94
-1.29
-1.52
-1.66
-1.80
-2.02
-2.34
-2.71
-3.05
-3.27
-3.38
-3.40
-3.37
-3.32
-3.23
-3.10
-2.95
-2.78
-2.64
-2.54
-2.50
-2.53
-2.63
-2.78
-2.95
-3.10
-3.19
-3.16
-3.00
-2.69
-2.23
-1.66
-1.05
-0.52
-0.15
-0.02
-0.10
-0.34
-0.60
-0.77
-0.79
-0.63
-0.37
-0.05
0.27
0.61
1.00
1.50
2.12
2.80
3.43
3.85
3.97
3.75
3.30
2.77
2.31
2.06
2.05
2.31
2.80
3.48
4.28
5.10
5.79
6.21
6.28
6.02
5.55
4.99
4.45
3.97
3.54
3.13
2.74
2.38
2.05
1.78
1.52
1.26
0.99
0.72
0.49
0.34
0.29
0.31
0.38
0.45
0.49
0.50
0.48
0.46
0.42
0.32
0.12
-0.19
-0.56
-0.87
-0.98
-0.86
-0.58
-0.30
-0.17
-0.23
-0.41
-0.60
-0.68
-0.61
-0.40
-0.10
0.22
0.52
0.73
0.79
0.68
0.42
0.12
-0.07
-0.06
0.16
0.46
0.70
0.79
0.74
0.63
0.54
0.46
0.35
0.16
-0.08
-0.27
-0.31
-0.16
0.11
0.33
0.34
0.12
-0.23
-0.53
-0.62
-0.43
-0.09
0.25
0.42
0.38
0.22
0.05
0.01
0.10
0.26
0.43
0.56
0.68
0.83
1.04
1.24
1.36
1.31
1.13
0.91
0.80
0.86
1.05
1.22
1.25
1.12
0.95
0.94
1.20
1.69
2.23
2.61
2.71
2.58
2.41
2.43
2.75
3.32
3.98
4.58
5.02
5.32
5.54
5.76
5.97
6.13
6.15
5.94
5.48
4.76
3.86
2.81
1.64
0.35
-1.05
-2.50
-3.91
-5.17
-6.19
-6.94
-7.44
-7.73
-7.83
-7.77
-7.58
-7.32
-7.09
-6.96
-6.93
-6.95
-6.90
-6.71
-6.35
-5.89
-5.43
-5.06
-4.86
-4.83
-4.94
-5.10
-5.22
-5.21
-5.00
-4.59
-4.03
-3.40
-2.80
-2.31
-1.96
-1.73
-1.55
-1.35
-1.04
-0.56
0.12
1.00
2.02
3.13
4.22
5.22
6.06
6.70
7.15
7.39
7.38
7.09
6.51
5.69
4.73
3.79
2.95
2.22
1.52
0.76
-0.10
-1.04
-1.95
-2.73
-3.36
-3.90
-4.45
-5.08
-5.79
-6.53
-7.16
-7.57
-7.65
-7.36
-6.75
-5.89
-4.90
-3.90
-2.96
-2.04
-1.07
0.09
1.53
3.28
5.31
7.50
9.73
11.85
13.68
15.10
15.99
16.34
16.17
15.61
14.76
13.68
12.32
10.59
8.40
5.80
2.98
0.24
-2.14
-3.96
-5.22
-6.03
-6.54
-6.89
-7.13
-7.31
-7.46
-7.61
-7.84
-8.14
-8.47
-8.73
-8.79
-8.61
-8.21
-7.68
-7.11
-6.59
-6.14
-5.72
-5.31
-4.86
-4.34
-3.74
-3.04
-2.25
-1.36
-0.43
0.48
1.31
2.06
2.75
3.45
4.17
4.88
5.45
5.74
5.61
5.03
4.06
2.84
1.57
0.43
-0.46
-1.06
-1.42
-1.65
-1.90
-2.30
-2.96
-3.84
-4.83
-5.75
-6.43
-6.78
-6.83
-6.70
-6.52
-6.34
-6.12
-5.79
-5.27
-4.54
-3.59
-2.41
-0.93
0.90
3.03
5.32
7.46
9.16
10.24
10.69
10.63
10.22
9.59
8.76
7.80
6.75
5.72
4.78
3.92
3.05
2.02
0.77
-0.62
-1.94
-2.96
-3.52
-3.62
-3.42
-3.10
-2.83
-2.69
-2.65
-2.65
-2.60
-2.45
-2.18
-1.81
-1.38
-0.98
-0.66
-0.47
-0.40
-0.41
-0.41
-0.33
-0.14
0.14
0.48
0.82
1.17
1.55
2.00
2.52
3.02
3.39
3.53
3.39
3.04
2.64
2.32
2.17
2.16
2.15
1.99
1.60
1.03
0.44
0.01
-0.12
0.01
0.28
0.52
0.58
0.44
0.17
-0.11
-0.30
-0.39
-0.39
-0.40
-0.45
-0.58
-0.80
-1.08
-1.36
-1.57
-1.63
-1.51
-1.22
-0.85
-0.49
-0.24
-0.14
-0.18
-0.32
-0.49
-0.62
-0.66
-0.58
-0.37
-0.06
0.26
0.46
0.47
0.26
-0.09
-0.40
-0.53
-0.43
-0.13
0.21
0.45
0.55
0.55
0.55
0.62
0.69
0.66
0.45
0.07
-0.31
-0.54
-0.50
-0.23
0.11
0.35
0.39
0.27
0.10
0.00
0.04
0.17
0.34
0.48
0.54
0.53
0.48
0.39
0.27
0.09
-0.15
-0.47
-0.81
-1.08
-1.17
-1.00
-0.60
-0.08
0.37
0.59
0.53
0.25
-0.08
-0.32
-0.40
-0.34
-0.24
-0.17
-0.17
-0.19
-0.22
-0.23
-0.27
-0.37
-0.55
-0.75
-0.89
-0.89
-0.76
-0.58
-0.44
-0.41
-0.44
-0.45
-0.31
-0.02
0.38
0.74
0.94
0.91
0.70
0.46
0.30
0.31
0.48
0.73
0.97
1.14
1.24
1.28
1.27
1.21
1.06
0.80
0.47
0.16
-0.03
-0.04
0.11
0.36
0.56
0.63
0.51
0.26
-0.06
-0.31
-0.46
-0.48
-0.43
-0.36
-0.32
-0.30
-0.28
-0.23
-0.15
-0.06
0.01
0.04
0.07
0.15
0.30
0.48
0.63
0.72
0.72
0.68
0.67
0.72
0.86
1.05
1.24
1.37
1.41
1.37
1.32
1.31
1.40
1.59
1.81
1.99
2.02
1.85
1.49
1.00
0.46
-0.04
-0.38
-0.52
-0.45
-0.23
0.02
0.18
0.20
0.05
-0.22
-0.54
-0.85
-1.06
-1.10
-0.91
-0.47
0.13
0.74
1.19
1.36
1.28
1.11
1.01
1.12
1.42
1.81
2.15
2.35
2.40
2.32
2.19
2.05
1.92
1.80
1.69
1.59
1.47
1.36
1.24
1.11
0.95
0.74
0.47
0.15
-0.18
-0.46
-0.68
-0.83
-0.96
-1.15
-1.45
-1.85
-2.27
-2.63
-2.85
-2.92
-2.88
-2.80
-2.74
-2.73
-2.75
-2.78
-2.78
-2.74
-2.65
-2.53
-2.41
-2.32
-2.29
-2.34
-2.45
-2.64
-2.88
-3.19
-3.53
-3.88
-4.15
-4.28
-4.22
-4.00
-3.73
-3.49
-3.36
-3.30
-3.24
-3.13
-2.96
-2.78
-2.66
-2.64
-2.72
-2.84
-2.97
-3.04
-3.02
-2.91
-2.71
-2.46
-2.21
-1.98
-1.81
-1.72
-1.67
-1.66
-1.64
-1.61
-1.55
-1.43
-1.25
-0.97
-0.59
-0.08
0.53
1.20
1.87
2.45
2.88
3.15
3.29
3.41
3.59
3.85
4.19
4.50
4.67
4.65
4.41
4.02
3.55
3.14
2.89
2.87
3.08
3.45
3.88
4.22
4.36
4.25
3.90
3.39
2.87
2.46
2.23
2.15
2.14
2.09
1.96
1.80
1.69
1.70
1.83
1.99
2.10
2.12
2.13
2.24
2.52
2.97
3.49
3.94
4.25
4.41
4.47
4.49
4.47
4.35
4.11
3.75
3.31
2.84
2.37
1.83
1.15
0.27
-0.80
-1.94
-3.02
-3.93
-4.61
-5.10
-5.47
-5.80
-6.12
-6.43
-6.73
-7.02
-7.30
-7.53
-7.65
-7.60
-7.39
-7.06
-6.72
-6.51
-6.45
-6.52
-6.61
-6.61
-6.44
-6.10
-5.61
-5.04
-4.42
-3.81
-3.27
-2.82
-2.47
-2.15
-1.79
-1.29
-0.61
0.24
1.22
2.30
3.49
4.79
6.15
7.43
8.44
8.98
8.96
8.38
7.40
6.22
5.01
3.90
2.93
2.07
1.29
0.52
-0.27
-1.08
-1.87
-2.62
-3.27
-3.81
-4.27
-4.69
-5.13
-5.62
-6.13
-6.63
-7.05
-7.33
-7.44
-7.36
-7.06
-6.55
-5.83
-4.92
-3.81
-2.53
-1.13
0.35
1.86
3.37
4.85
6.31
7.69
8.88
9.71
10.07
9.90
9.33
8.54
7.75
7.07
6.52
5.98
5.37
4.68
3.97
3.33
2.82
2.43
2.10
1.75
1.38
1.03
0.75
0.59
0.52
0.49
0.46
0.43
0.40
0.37
0.31
0.17
-0.06
-0.36
-0.58
-0.64
-0.48
-0.14
0.25
0.58
0.76
0.76
0.60
0.28
-0.18
-0.70
-1.15
-1.42
-1.41
-1.15
-0.73
-0.29
0.05
0.24
0.26
0.13
-0.14
-0.52
-0.92
-1.24
-1.38
-1.32
-1.13
-0.91
-0.75
-0.68
-0.66
-0.60
-0.50
-0.39
-0.34
-0.41
-0.61
-0.88
-1.13
-1.28
-1.30
-1.23
-1.11
-0.99
-0.87
-0.77
-0.69
-0.66
-0.69
-0.78
-0.87
-0.89
-0.78
-0.52
-0.17
0.17
0.38
0.41
0.26
0.01
-0.23
-0.38
-0.41
-0.35
-0.22
-0.10
-0.02
0.01
-0.01
-0.05
-0.10
-0.15
-0.21
-0.30
-0.42
-0.55
-0.62
-0.58
-0.40
-0.10
0.25
0.57
0.78
0.83
0.71
0.43
0.01
-0.48
-0.95
-1.28
-1.38
-1.20
-0.83
-0.42
-0.12
-0.02
-0.10
-0.25
-0.35
-0.33
-0.20
-0.08
-0.08
-0.27
-0.62
-1.07
-1.49
-1.80
-1.91
-1.81
-1.54
-1.19
-0.86
-0.62
-0.49
-0.40
-0.29
-0.12
0.15
0.45
0.77
1.05
1.31
1.57
1.86
2.21
2.58
2.94
3.22
3.40
3.52
3.69
4.00
4.52
5.19
5.89
6.44
6.74
6.76
6.57
6.24
5.83
5.34
4.80
4.23
3.69
3.19
2.75
2.31
1.78
1.12
0.30
-0.64
-1.63
-2.61
-3.51
-4.31
-4.99
-5.60
-6.12
-6.57
-6.90
-7.09
-7.14
-7.10
-7.02
-6.99
-6.99
-6.96
-6.81
-6.47
-5.95
-5.32
-4.71
-4.22
-3.93
-3.82
-3.81
-3.84
-3.83
-3.73
-3.56
-3.31
-3.00
-2.62
-2.16
-1.63
-1.03
-0.40
0.28
1.03
1.88
2.86
3.90
4.90
5.71
6.25
6.52
6.59
6.53
6.37
6.07
5.54
4.75
3.72
2.60
1.52
0.61
-0.13
-0.74
-1.32
-1.94
-2.60
-3.29
-3.95
-4.53
-5.02
-5.43
-5.80
-6.17
-6.59
-7.02
-7.38
-7.57
-7.49
-7.14
-6.60
-5.99
-5.43
-4.93
-4.42
-3.73
-2.71
-1.29
0.49
2.44
4.31
5.90
7.08
7.84
8.25
8.44
8.48
8.36
8.04
7.45
6.60
5.60
4.60
3.77
3.20
2.91
2.79
2.73
2.64
2.48
2.25
1.98
1.68
1.36
1.03
0.71
0.44
0.24
0.09
-0.03
-0.12
-0.19
-0.21
-0.14
-0.01
0.12
0.17
0.08
-0.13
-0.42
-0.70
-0.90
-0.99
-0.96
-0.84
-0.69
-0.56
-0.53
-0.61
-0.75
-0.84
-0.77
-0.49
-0.05
0.42
0.76
0.87
0.76
0.49
0.18
-0.07
-0.23
-0.27
-0.19
-0.01
0.24
0.52
0.75
0.87
0.86
0.73
0.57
0.43
0.36
0.37
0.42
0.47
0.46
0.39
0.27
0.15
0.06
0.02
0.02
0.06
0.12
0.16
0.19
0.18
0.12
0.01
-0.12
-0.25
-0.34
-0.38
-0.36
-0.28
-0.15
0.02
0.23
0.45
0.66
0.79
0.80
0.66
0.41
0.13
-0.08
-0.19
-0.18
-0.10
0.00
0.07
0.06
-0.04
-0.20
-0.38
-0.55
-0.67
-0.73
-0.69
-0.57
-0.38
-0.16
0.05
0.21
0.31
0.41
0.55
0.77
1.09
1.43
1.69
1.79
1.75
1.68
1.69
1.88
2.23
2.68
3.10
3.43
3.65
3.76
3.75
3.62
3.39
3.11
2.84
2.63
2.48
2.33
2.12
1.81
1.44
1.08
0.78
0.56
0.42
0.34
0.35
0.45
0.65
0.90
1.09
1.13
0.98
0.69
0.38
0.15
0.01
-0.07
-0.21
-0.48
-0.90
-1.40
-1.91
-2.35
-2.67
-2.86
-2.91
-2.84
-2.67
-2.49
-2.38
-2.42
-2.60
-2.87
-3.11
-3.21
-3.14
-2.92
-2.63
-2.36
-2.18
-2.11
-2.15
-2.25
-2.37
-2.47
-2.51
-2.45
-2.27
-2.01
-1.69
-1.38
-1.11
-0.88
-0.66
-0.42
-0.15
0.11
0.33
0.49
0.63
0.77
0.93
1.08
1.17
1.15
1.02
0.88
0.80
0.87
1.08
1.36
1.65
1.86
1.97
1.97
1.82
1.54
1.15
0.70
0.30
0.06
0.04
0.25
0.59
0.92
1.11
1.04
0.73
0.28
-0.18
-0.51
-0.65
-0.61
-0.47
-0.31
-0.19
-0.10
-0.01
0.03
-0.01
-0.20
-0.54
-0.96
-1.36
-1.64
-1.77
-1.81
-1.82
-1.84
-1.85
-1.81
-1.69
-1.51
-1.33
-1.22
-1.19
-1.20
-1.22
-1.21
-1.16
-1.10
-1.09
-1.16
-1.30
-1.48
-1.61
-1.61
-1.45
-1.18
-0.89
-0.70
-0.66
-0.75
-0.86
-0.90
-0.81
-0.64
-0.52
-0.55
-0.76
-1.06
-1.29
-1.34
-1.20
-0.94
-0.70
-0.59
-0.65
-0.81
-0.96
-1.05
-1.08
-1.11
-1.23
-1.44
-1.65
-1.73
-1.52
-1.00
-0.24
0.59
1.28
1.70
1.83
1.76
1.60
1.40
1.20
0.93
0.56
0.04
-0.60
-1.31
-2.02
-2.67
-3.26
-3.79
-4.25
-4.62
-4.85
-4.92
-4.85
-4.72
-4.64
-4.71
-4.97
-5.38
-5.88
-6.38
-6.79
-7.05
-7.14
-7.05
-6.76
-6.25
-5.50
-4.53
-3.38
-2.12
-0.87
0.27
1.24
2.05
2.75
3.41
4.09
4.78
5.49
6.20
6.86
7.49
8.09
8.66
9.24
9.82
10.39
10.93
11.40
11.77
12.05
12.23
12.31
12.30
12.15
11.84
11.31
10.54
9.51
8.21
6.67
4.91
2.99
1.02
-0.87
-2.50
-3.72
-4.48
-4.84
-5.01
-5.21
-5.65
-6.33
-7.12
-7.76
-8.04
-7.89
-7.45
-6.94
-6.54
-6.35
-6.29
-6.22
-6.06
-5.79
-5.50
-5.28
-5.18
-5.14
-5.02
-4.70
-4.12
-3.34
-2.49
-1.71
-1.07
-0.56
-0.10
0.43
1.12
1.99
3.00
4.06
5.06
5.89
6.47
6.74
6.66
6.22
5.46
4.46
3.34
2.22
1.18
0.30
-0.42
-1.00
-1.51
-2.03
-2.66
-3.43
-4.29
-5.13
-5.78
-6.15
-6.21
-6.09
-5.93
-5.87
-5.92
-6.01
-6.02
-5.85
-5.48
-4.90
-4.12
-3.13
-1.87
-0.34
1.43
3.35
5.31
7.21
8.96
10.48
11.65
12.41
12.72
12.61
12.19
11.58
10.87
10.13
9.41
8.75
8.21
7.79
7.45
7.10
6.62
5.97
5.22
4.46
3.82
3.33
2.93
2.54
2.06
1.50
0.90
0.30
-0.27
-0.79
-1.25
-1.61
-1.83
-1.89
-1.83
-1.73
-1.68
-1.71
-1.81
-1.95
-2.11
-2.32
-2.61
-2.98
-3.38
-3.69
-3.81
-3.70
-3.45
-3.19
-3.06
-3.14
-3.40
-3.75
-4.04
-4.18
-4.11
-3.87
-3.47
-3.00
-2.51
-2.08
-1.77
-1.64
-1.70
-1.89
-2.13
-2.28
-2.28
-2.09
-1.77
-1.40
-1.08
-0.84
-0.68
-0.59
-0.55
-0.56
-0.62
-0.71
-0.77
-0.78
-0.74
-0.70
-0.71
-0.79
-0.92
-1.02
-1.00
-0.84
-0.58
-0.33
-0.19
-0.24
-0.47
-0.80
-1.11
-1.31
-1.35
-1.23
-0.99
-0.67
-0.30
0.07
0.40
0.62
0.67
0.52
0.22
-0.16
-0.50
-0.70
-0.74
-0.64
-0.50
-0.40
-0.41
-0.54
-0.76
-0.99
-1.21
-1.40
-1.58
-1.77
-1.99
-2.20
-2.36
-2.46
-2.51
-2.54
-2.60
-2.69
-2.79
-2.88
-2.90
-2.84
-2.70
-2.48
-2.24
-2.02
-1.90
-1.95
-2.16
-2.48
-2.79
-2.96
-2.91
-2.64
-2.23
-1.81
-1.45
-1.16
-0.89
-0.58
-0.16
0.35
0.96
1.67
2.51
3.47
4.48
5.41
6.15
6.64
6.91
7.11
7.42
7.93
8.67
9.49
10.21
10.63
10.64
10.22
9.44
8.40
7.15
5.75
4.19
2.53
0.85
-0.72
-2.04
-3.01
-3.61
-3.91
-4.02
-4.06
-4.16
-4.37
-4.70
-5.10
-5.51
-5.84
-6.02
-6.05
-5.95
-5.75
-5.48
-5.16
-4.80
-4.41
-4.04
-3.75
-3.55
-3.41
-3.25
-3.00
-2.61
-2.07
-1.43
-0.72
0.03
0.83
1.69
2.59
3.50
4.31
4.98
5.48
5.83
6.03
6.07
5.89
5.40
4.60
3.56
2.43
1.36
0.46
-0.25
-0.81
-1.30
-1.78
-2.28
-2.83
-3.44
-4.11
-4.82
-5.53
-6.16
-6.63
-6.90
-6.96
-6.88
-6.72
-6.52
-6.29
-6.01
-5.64
-5.18
-4.61
-3.99
-3.33
-2.65
-1.92
-1.09
-0.10
1.08
2.41
3.82
5.20
6.46
7.53
8.38
9.00
9.35
9.41
9.18
8.68
8.03
7.35
6.76
6.29
5.89
5.50
5.06
4.57
4.10
3.74
3.53
3.46
3.46
3.44
3.29
2.96
2.45
1.81
1.16
0.64
0.35
0.32
0.50
0.75
0.92
0.95
0.82
0.60
0.33
0.05
-0.24
-0.52
-0.79
-1.00
-1.15
-1.21
-1.22
-1.19
-1.12
-1.00
-0.84
-0.63
-0.41
-0.22
-0.07
0.01
0.01
-0.08
-0.29
-0.60
-0.96
-1.24
-1.34
-1.22
-0.92
-0.59
-0.32
-0.19
-0.17
-0.21
-0.23
-0.23
-0.22
-0.20
-0.14
0.00
0.27
0.58
0.81
0.78
0.40
-0.26
-1.04
-1.72
-2.12
-2.21
-2.03
-1.72
-1.40
-1.16
-1.04
-1.04
-1.13
-1.24
-1.33
-1.37
-1.37
-1.36
-1.37
-1.41
-1.46
-1.46
-1.38
-1.23
-1.06
-0.92
-0.86
-0.90
-0.97
-0.97
-0.85
-0.57
-0.18
0.20
0.44
0.48
0.30
0.02
-0.24
-0.36
-0.31
-0.12
0.12
0.34
0.48
0.56
0.58
0.55
0.49
0.40
0.32
0.28
0.32
0.44
0.60
0.69
0.67
0.53
0.33
0.17
0.09
0.07
0.05
-0.06
-0.26
-0.49
-0.65
-0.68
-0.58
-0.40
-0.20
0.01
0.24
0.52
0.82
1.08
1.24
1.28
1.20
1.08
0.97
0.91
0.92
0.96
1.00
1.01
0.95
0.84
0.71
0.62
0.60
0.66
0.79
0.93
1.03
1.06
0.99
0.80
0.51
0.17
-0.13
-0.31
-0.32
-0.17
0.03
0.18
0.21
0.10
-0.11
-0.31
-0.42
-0.37
-0.15
0.21
0.63
1.03
1.37
1.67
2.03
2.53
3.22
3.98
4.63
5.02
5.09
5.00
5.00
5.37
6.21
7.42
8.72
9.81
10.48
10.78
10.89
11.09
11.57
12.39
13.44
14.58
15.68
16.72
17.81
19.19
21.13
23.89
27.55
31.97
36.80
41.56
45.96
49.99
54.09
58.96
65.22
73.12
82.35
92.12
101.57
110.12
117.75
125.02
132.74
141.71
152.51
165.46
180.56
197.27
214.10
228.45
236.93
236.20
224.19
200.86
168.20
129.32
86.97
42.61
-3.58
-51.58
-100.17
-146.21
-185.30
-213.40
-228.57
-231.80
-226.39
-216.37
-204.88
-193.32
-181.63
-169.29
-156.36
-143.72
-132.65
-124.00
-117.68
-112.70
-107.77
-101.98
-95.17
-87.94
-81.15
-75.45
-70.95
-67.25
-63.69
-59.72
-55.11
-50.08
-45.06
-40.46
-36.50
-33.15
-30.25
-27.59
-25.06
-22.60
-20.20
-17.87
-15.63
-13.50
-11.53
-9.72
-8.05
-6.48
-4.89
-3.23
-1.49
0.26
1.92
3.37
4.54
5.37
5.85
5.91
5.51
4.56
3.09
1.22
-0.74
-2.40
-3.40
-3.58
-3.10
-2.34
-1.77
-1.72
-2.23
-3.06
-3.84
-4.29
-4.32
-4.03
-3.60
-3.21
-2.98
-2.99
-3.34
-4.04
-5.04
-6.12
-6.94
-7.16
-6.65
-5.52
-4.19
-3.21
-3.02
-3.85
-5.62
-8.01
-10.63
-13.13
-15.25
-16.85
-17.89
-18.43
-18.61
-18.67
-18.89
-19.50
-20.50
-21.55
-21.95
-20.78
-17.33
-11.37
-3.43
5.29
13.24
19.06
21.95
21.87
19.48
15.86
12.18
9.31
7.71
7.28
7.56
7.98
8.16
8.08
7.99
8.35
9.57
11.96
15.71
20.86
27.23
34.23
40.79
45.58
47.47
46.00
41.62
35.47
28.80
22.36
16.23
10.07
3.59
-2.99
-9.00
-13.65
-16.49
-17.63
-17.69
-17.37
-17.17
-17.13
-17.04
-16.62
-15.77
-14.60
-13.33
-12.18
-11.27
-10.61
-10.10
-9.65
-9.18
-8.68
-8.20
-7.84
-7.64
-7.57
-7.52
-7.33
-6.89
-6.23
-5.51
-4.96
-4.76
-4.99
-5.50
-6.04
-6.27
-5.97
-5.10
-3.88
-2.76
-2.23
-2.68
-4.25
-6.76
-9.83
-13.00
-15.88
-18.27
-20.08
-21.32
-22.02
-22.27
-22.21
-22.08
-22.17
-22.70
-23.70
-24.95
-25.98
-26.29
-25.56
-23.86
-21.63
-19.50
-17.95
-16.99
-16.08
-14.39
-11.14
-6.08
0.56
8.15
16.10
24.09
32.06
40.06
48.01
55.63
62.54
68.41
73.16
76.92
79.92
82.27
83.81
84.17
82.87
79.53
73.91
65.89
55.47
42.72
27.87
11.55
-5.10
-20.57
-33.38
-42.71
-48.77
-52.87
-56.81
-62.15
-69.36
-77.66
-85.36
-90.69
-92.63
-91.40
-88.34
-85.34
-84.03
-85.21
-88.67
-93.55
-98.86
-103.95
-108.55
-112.59
-115.97
-118.37
-119.30
-118.04
-113.37
-103.37
-85.65
-58.32
-21.31
22.69
68.50
109.98
142.37
163.91
176.08
182.21
185.41
187.20
187.36
185.01
179.93
173.36
167.57
164.91
166.89
173.51
183.07
192.52
197.94
195.34
181.77
156.14
119.82
76.48
31.14
-11.13
-46.38
-72.49
-89.13
-97.26
-98.60
-95.08
-88.58
-80.86
-73.45
-67.54
-63.78
-62.22
-62.31
-62.99
-63.16
-62.01
-59.37
-55.67
-51.72
-48.38
-46.10
-44.82
-44.01
-42.95
-41.04
-38.01
-34.02
-29.54
-25.11
-21.12
-17.69
-14.69
-11.94
-9.29
-6.76
-4.53
-2.76
-1.47
-0.57
0.14
0.78
1.35
1.80
2.20
2.79
3.85
5.54
7.71
9.82
11.22
11.50
10.59
8.92
7.09
5.64
4.93
5.27
6.98
10.31
15.03
20.11
23.80
24.25
20.40
12.66
2.84
-6.63
-13.75
-17.75
-19.15
-19.12
-18.74
-18.46
-18.10
-17.30
-15.92
-14.23
-12.74
-11.89
-11.78
-12.14
-12.53
-12.39
-11.55
-10.13
-8.56
-7.34
-6.82
-6.99
-7.60
-8.23
-8.59
-8.58
-8.26
-7.80
-7.29
-6.81
-6.37
-6.05
-5.96
-6.20
-6.77
-7.49
-8.05
-8.08
-7.40
-6.06
-4.44
-3.11
-2.68
-3.57
-5.85
-9.18
-12.92
-16.36
-18.94
-20.44
-21.00
-20.96
-20.63
-20.05
-18.91
-16.72
-13.07
-7.94
-1.83
4.37
9.66
13.21
14.63
13.98
11.70
8.41
4.85
1.80
0.14
0.66
3.75
9.06
15.46
21.27
24.91
25.53
23.27
19.17
14.56
10.46
7.31
4.93
2.95
1.10
-0.70
-2.40
-3.92
-5.26
-6.27
-6.60
-5.72
-3.26
0.79
5.88
11.00
15.11
17.47
17.85
16.55
14.12
11.17
8.18
5.52
3.43
2.05
1.38
1.22
1.27
1.17
0.71
-0.14
-1.24
-2.37
-3.34
-4.02
-4.30
-4.15
-3.57
-2.72
-1.81
-1.11
-0.78
-0.78
-0.93
-1.03
-0.92
-0.60
-0.16
0.30
0.73
1.16
1.64
2.18
2.75
3.25
3.60
3.71
3.58
3.23
2.74
2.23
1.78
1.45
1.18
0.90
0.50
-0.03
-0.61
-1.09
-1.37
-1.43
-1.31
-1.13
-0.98
-0.88
-0.82
-0.77
-0.71
-0.67
-0.67
-0.70
-0.75
-0.81
-0.83
-0.78
-0.64
-0.39
-0.05
0.30
0.59
0.72
0.67
0.44
0.13
-0.18
-0.43
-0.58
-0.66
-0.66
-0.61
-0.50
-0.36
-0.22
-0.11
-0.03
0.01
0.05
0.09
0.12
0.14
0.11
0.05
-0.01
-0.03
0.01
0.08
0.16
0.26
0.38
0.58
0.87
1.19
1.45
1.58
1.54
1.40
1.27
1.27
1.44
1.75
2.08
2.35
2.48
2.49
2.40
2.27
2.08
1.84
1.54
1.18
0.82
0.51
0.31
0.18
0.05
-0.18
-0.61
-1.25
-2.08
-3.08
-4.22
-5.51
-6.89
-8.27
-9.42
-10.08
-10.08
-9.43
-8.31
-7.05
-5.90
-5.02
-4.40
-3.94
-3.51
-3.02
-2.39
-1.58
-0.56
0.65
2.01
3.38
4.67
5.80
6.72
7.39
7.71
7.60
6.96
5.83
4.37
2.83
1.47
0.51
0.02
-0.05
0.15
0.42
0.60
0.57
0.30
-0.19
-0.84
-1.55
-2.21
-2.68
-2.84
-2.64
-2.11
-1.41
-0.77
-0.41
-0.40
-0.67
-1.02
-1.21
-1.13
-0.77
-0.26
0.24
0.63
0.86
0.98
1.00
0.95
0.80
0.55
0.23
-0.06
-0.24
-0.27
-0.18
-0.04
0.07
0.16
0.27
0.50
0.88
1.41
1.96
2.38
2.55
2.44
2.06
1.52
0.90
0.31
-0.18
-0.48
-0.52
-0.29
0.16
0.70
1.18
1.49
1.59
1.54
1.41
1.24
1.00
0.66
0.18
-0.36
-0.85
-1.15
-1.23
-1.14
-1.03
-1.04
-1.28
-1.75
-2.38
-3.03
-3.61
-4.07
-4.40
-4.67
-4.94
-5.27
-5.64
-6.03
-6.37
-6.64
-6.85
-7.06
-7.36
-7.83
-8.52
-9.41
-10.42
-11.33
-11.82
-11.55
-10.28
-7.99
-5.00
-1.84
0.90
2.77
3.62
3.61
3.07
2.32
1.57
0.85
0.13
-0.68
-1.58
-2.52
-3.45
-4.33
-5.11
-5.69
-5.90
-5.49
-4.20
-1.88
1.42
5.42
9.65
13.57
16.68
18.71
19.62
19.65
19.17
18.55
18.04
17.69
17.40
16.99
16.37
15.54
14.65
13.84
13.15
12.57
12.00
11.42
10.89
10.52
10.36
10.39
10.49
10.53
10.53
10.60
10.92
11.60
12.56
13.58
14.39
14.87
15.14
15.41
15.81
16.19
16.17
15.31
13.39
10.55
7.27
4.12
1.59
-0.09
-0.88
-0.83
-0.09
1.11
2.36
3.11
2.89
1.56
-0.53
-2.56
-3.56
-2.78
-0.09
3.93
8.04
10.75
10.83
7.71
1.79
-5.73
-13.25
-19.34
-23.20
-24.77
-24.53
-23.12
-21.00
-18.35
-15.17
-11.60
-8.09
-5.35
-4.12
-4.85
-7.44
-11.23
-15.20
-18.40
-20.26
-20.78
-20.41
-19.71
-19.05
-18.42
-17.55
-16.17
-14.24
-11.99
-9.82
-8.01
-6.61
-5.40
-4.06
-2.37
-0.34
1.80
3.69
5.00
5.56
5.45
4.88
4.16
3.47
2.87
2.25
1.47
0.44
-0.82
-2.09
-3.11
-3.59
-3.33
-2.25
-0.45
1.83
4.24
6.36
7.81
8.35
7.96
6.79
5.14
3.33
1.63
0.21
-0.87
-1.66
-2.28
-2.90
-3.67
-4.65
-5.79
-6.88
-7.67
-7.95
-7.65
-6.90
-5.93
-5.02
-4.33
-3.92
-3.68
-3.47
-3.18
-2.79
-2.30
-1.74
-1.05
-0.16
0.99
2.30
3.56
4.49
4.91
4.83
4.48
4.17
4.12
4.31
4.53
4.48
3.97
3.03
1.91
0.89
0.18
-0.17
-0.29
-0.31
-0.35
-0.45
-0.59
-0.74
-0.92
-1.16
-1.46
-1.80
-2.13
-2.35
-2.42
-2.28
-1.95
-1.50
-1.04
-0.70
-0.56
-0.60
-0.71
-0.73
-0.52
-0.07
0.51
1.07
1.46
1.60
1.48
1.14
0.69
0.24
-0.07
-0.10
0.21
0.83
1.57
2.20
2.52
2.49
2.25
2.01
1.97
2.19
2.57
2.96
3.22
3.36
3.44
3.58
3.82
4.14
4.38
4.45
4.32
4.09
3.98
4.20
4.85
5.82
6.81
7.42
7.28
6.22
4.35
2.02
-0.24
-1.99
-2.97
-3.21
-2.97
-2.69
-2.76
-3.45
-4.77
-6.44
-8.00
-8.97
-9.06
-8.33
-7.17
-6.16
-5.82
-6.39
-7.73
-9.56
-11.51
-13.42
-15.32
-17.39
-19.73
-22.50
-25.79
-29.64
-33.73
-37.11
-38.32
-35.81
-28.81
-18.02
-5.67
5.38
12.85
16.05
15.99
14.56
13.35
12.86
12.53
11.49
9.43
6.89
4.86
4.10
4.57
5.50
5.90
5.08
3.06
0.51
-1.74
-3.01
-3.03
-1.94
-0.14
1.94
3.96
5.74
7.28
8.63
9.87
10.99
11.87
12.32
12.21
11.51
10.41
9.23
8.30
7.86
7.91
8.26
8.59
8.58
8.03
6.92
5.37
3.59
1.83
0.27
-0.96
-1.84
-2.42
-2.82
-3.16
-3.58
-4.15
-4.85
-5.65
-6.52
-7.44
-8.47
-9.71
-11.23
-13.08
-15.24
-17.63
-20.13
-22.61
-24.86
-26.61
-27.62
-27.74
-27.09
-26.03
-25.09
-24.77
-25.29
-26.59
-28.35
-30.27
-32.24
-34.48
-37.35
-41.12
-45.69
-50.49
-54.66
-57.47
-58.65
-58.44
-57.37
-55.91
-54.18
-52.00
-49.02
-45.08
-40.09
-34.23
-27.67
-20.73
-13.96
-8.35
-5.26
-5.86
-10.37
-17.28
-23.40
-24.70
-18.02
-2.53
19.62
43.90
65.15
79.51
85.69
84.98
80.13
73.92
67.97
62.73
57.86
53.04
48.30
43.87
39.74
35.45
30.47
24.82
19.76
17.47
20.14
28.71
42.08
57.31
70.81
79.88
83.70
83.45
81.29
79.21
78.10
77.68
77.07
75.55
73.00
69.95
67.18
65.29
64.44
64.43
64.74
65.22
66.27
68.89
74.45
84.10
98.35
116.70
137.43
157.59
173.28
180.21
174.55
153.98
118.69
71.78
18.92
-33.01
-77.65
-110.79
-131.22
-140.45
-141.54
-137.78
-131.65
-124.56
-117.13
-109.76
-102.95
-97.24
-92.88
-89.56
-86.47
-82.67
-77.56
-71.18
-64.17
-57.47
-51.98
-48.16
-45.95
-44.88
-44.32
-43.86
-43.44
-43.41
-44.24
-46.14
-48.83
-51.49
-53.08
-52.75
-50.29
-46.30
-42.00
-38.79
-37.67
-38.84
-41.60
-44.64
-46.55
-46.39
-44.00
-40.02
-35.55
-31.65
-28.96
-27.56
-27.10
-27.07
-27.10
-27.12
-27.34
-28.18
-30.24
-34.25
-41.01
-51.01
-63.58
-76.21
-84.55
-83.60
-69.86
-43.38
-8.48
27.47
56.81
74.61
80.21
76.76
69.08
61.15
54.72
49.39
43.88
37.32
29.87
22.38
15.75
10.36
6.11
2.57
-0.57
-3.41
-5.80
-7.56
-8.66
-9.50
-10.99
-14.12
-19.19
-25.04
-28.92
-27.48
-18.40
-1.95
18.61
38.22
52.24
58.46
57.90
53.78
49.61
47.40
47.13
47.51
47.23
45.88
43.91
42.05
40.56
39.09
37.06
34.12
30.49
26.92
24.20
22.71
22.18
21.89
21.05
19.14
16.15
12.36
8.14
3.73
-0.76
-5.28
-9.68
-13.72
-17.11
-19.74
-21.80
-23.84
-26.55
-30.45
-35.59
-41.38
-46.78
-50.74
-52.62
-52.54
-51.27
-49.93
-49.52
-50.69
-53.70
-58.46
-64.16
-68.89
-69.55
-62.65
-45.90
-19.69
12.25
43.93
69.37
84.99
90.78
89.73
85.85
82.09
79.25
76.27
71.58
64.29
54.77
44.29
34.21
25.37
17.91
11.43
5.52
0.10
-4.43
-7.46
-8.52
-7.72
-5.85
-4.10
-3.58
-4.66
-6.81
-8.76
-9.16
-7.10
-2.64
3.34
9.47
14.51
17.79
19.30
19.59
19.34
19.13
19.25
19.76
20.47
21.16
21.58
21.61
21.25
20.59
19.82
19.02
18.18
17.17
15.84
14.10
12.02
9.68
7.17
4.39
1.19
-2.57
-6.75
-10.99
-14.68
-17.30
-18.61
-18.76
-18.21
-17.47
-16.86
-16.42
-15.95
-15.21
-14.08
-12.61
-11.00
-9.51
-8.30
-7.37
-6.60
-5.85
-4.99
-3.98
-2.88
-1.75
-0.63
0.54
1.83
3.30
4.89
6.44
7.72
8.51
8.68
8.25
7.31
6.05
4.64
3.28
2.12
1.27
0.76
0.56
0.54
0.55
0.45
0.13
-0.45
-1.23
-2.10
-2.91
-3.51
-3.81
-3.79
-3.57
-3.32
-3.23
-3.42
-3.95
-4.77
-5.73
-6.67
-7.43
-7.90
-8.05
-7.90
-7.55
-7.10
-6.63
-6.17
-5.67
-5.02
-4.13
-2.93
-1.42
0.31
2.16
4.04
5.92
7.87
9.94
12.13
14.26
16.05
17.18
17.41
16.71
15.26
13.40
11.50
9.84
8.58
7.73
7.25
7.06
7.09
7.28
7.59
8.02
8.55
9.21
10.06
11.12
12.37
13.65
14.67
15.10
14.74
13.68
12.28
11.10
10.61
11.02
12.27
14.15
16.51
19.36
22.87
27.12
31.97
36.99
41.63
45.49
48.58
51.32
54.41
58.51
63.96
70.65
77.99
85.20
91.55
96.66
100.66
104.29
108.78
115.47
125.09
136.98
148.66
156.09
154.70
140.78
112.65
71.29
20.19
-35.36
-89.39
-136.29
-171.94
-194.29
-203.52
-201.68
-191.83
-177.20
-160.50
-143.77
-128.47
-115.69
-106.16
-99.84
-95.91
-92.80
-88.88
-83.03
-75.17
-66.09
-57.00
-48.98
-42.55
-37.66
-33.89
-30.80
-28.13
-25.92
-24.30
-23.38
-23.06
-23.11
-23.29
-23.52
-23.86
-24.49
-25.60
-27.25
-29.41
-31.96
-34.73
-37.53
-40.23
-42.74
-45.08
-47.35
-49.69
-52.23
-55.02
-58.04
-61.23
-64.42
-67.46
-70.14
-72.37
-74.43
-76.91
-80.36
-84.60
-88.20
-88.68
-83.21
-69.64
-46.99
-15.48
23.85
69.30
118.30
167.12
211.04
245.40
267.17
276.22
275.41
269.30
262.30
257.02
253.60
250.26
244.17
232.24
211.57
180.07
137.24
85.10
28.36
-26.34
-72.35
-105.02
-123.02
-128.35
-125.05
-117.45
-108.80
-100.79
-93.89
-88.05
-83.24
-79.53
-76.89
-74.84
-72.62
-69.42
-64.90
-59.34
-53.46
-48.20
-44.19
-41.53
-39.73
-38.03
-35.70
-32.39
-28.29
-23.98
-20.14
-17.27
-15.43
-14.30
-13.35
-12.13
-10.45
-8.46
-6.53
-5.02
-4.11
-3.73
-3.65
-3.58
-3.38
-3.02
-2.63
-2.30
-2.09
-1.95
-1.79
-1.57
-1.30
-1.06
-0.91
-0.89
-0.94
-0.97
-0.96
-0.90
-0.84
-0.82
-0.82
-0.78
-0.62
-0.34
-0.02
0.23
0.28
0.08
-0.30
-0.75
-1.13
-1.36
-1.45
-1.42
-1.31
-1.13
-0.90
-0.64
-0.41
-0.23
-0.13
-0.09
-0.09
-0.12
-0.16
-0.17
-0.11
0.07
0.39
0.80
1.15
1.32
1.19
0.80
0.33
-0.04
-0.18
-0.10
0.05
0.09
-0.03
-0.28
-0.50
-0.59
-0.52
-0.40
-0.33
-0.39
-0.57
-0.73
-0.74
-0.56
-0.23
0.10
0.30
0.29
0.14
-0.04
-0.15
-0.16
-0.14
-0.18
-0.30
-0.46
-0.54
-0.45
-0.17
0.18
0.47
0.58
0.53
0.39
0.25
0.18
0.15
0.12
0.05
-0.02
-0.06
-0.03
0.04
0.07
0.01
-0.12
-0.26
-0.30
-0.15
0.17
0.58
0.93
1.11
1.07
0.84
0.51
0.16
-0.13
-0.32
-0.40
-0.36
-0.21
0.06
0.40
0.77
1.10
1.31
1.35
1.23
0.98
0.67
0.39
0.15
-0.05
-0.21
-0.35
-0.46
-0.50
-0.46
-0.33
-0.16
0.01
0.13
0.16
0.10
-0.03
-0.24
-0.49
-0.76
-0.99
-1.14
-1.18
-1.10
-0.95
-0.81
-0.75
-0.75
-0.78
-0.75
-0.58
-0.27
0.12
0.46
0.65
0.65
0.49
0.24
0.00
-0.15
-0.21
-0.20
-0.16
-0.09
-0.02
0.07
0.20
0.37
0.57
0.76
0.91
0.97
0.95
0.84
0.66
0.41
0.13
-0.12
-0.30
-0.36
-0.31
-0.21
-0.12
-0.06
-0.05
-0.04
-0.01
0.03
0.03
-0.10
-0.39
-0.79
-1.16
-1.33
-1.21
-0.80
-0.22
0.34
0.76
1.01
1.12
1.17
1.21
1.20
1.11
0.88
0.52
0.13
-0.17
-0.29
-0.24
-0.07
0.12
0.24
0.30
0.32
0.34
0.36
0.35
0.26
0.09
-0.13
-0.32
-0.42
-0.42
-0.39
-0.42
-0.56
-0.78
-0.99
-1.05
-0.92
-0.63
-0.32
-0.13
-0.12
-0.23
-0.34
-0.35
-0.20
0.06
0.32
0.48
0.50
0.40
0.24
0.08
-0.06
-0.16
-0.24
-0.29
-0.26
-0.13
0.11
0.39
0.64
0.76
0.70
0.49
0.20
-0.09
-0.27
-0.32
-0.21
0.02
0.32
0.59
0.67
0.47
0.00
-0.61
-1.12
-1.33
-1.18
-0.77
-0.31
-0.01
0.07
0.00
-0.08
-0.07
0.03
0.16
0.25
0.29
0.31
0.37
0.53
0.76
0.99
1.12
1.07
0.83
0.48
0.12
-0.14
-0.26
-0.30
-0.37
-0.54
-0.81
-1.07
-1.17
-1.03
-0.69
-0.26
0.14
0.43
0.62
0.73
0.73
0.58
0.27
-0.14
-0.49
-0.60
-0.38
0.11
0.67
1.08
1.19
0.96
0.49
-0.10
-0.64
-1.05
-1.25
-1.22
-1.00
-0.64
-0.24
0.14
0.44
0.63
0.71
0.67
0.52
0.28
-0.01
-0.26
-0.41
-0.41
-0.28
-0.05
0.21
0.45
0.62
0.69
0.65
0.51
0.30
0.07
-0.16
-0.39
-0.59
-0.78
-0.92
-0.95
-0.86
-0.63
-0.33
-0.02
0.24
0.45
0.61
0.77
0.90
0.98
0.93
0.73
0.40
-0.02
-0.44
-0.79
-0.98
-0.99
-0.83
-0.58
-0.35
-0.19
-0.12
-0.05
0.10
0.39
0.76
1.08
1.23
1.11
0.77
0.31
-0.12
-0.43
-0.60
-0.66
-0.67
-0.67
-0.69
-0.71
-0.71
-0.66
-0.55
-0.38
-0.18
0.01
0.17
0.30
0.42
0.54
0.67
0.79
0.88
0.90
0.83
0.64
0.35
0.02
-0.25
-0.34
-0.19
0.21
0.73
1.19
1.41
1.30
0.94
0.50
0.18
0.10
0.27
0.58
0.92
1.17
1.29
1.28
1.17
0.98
0.77
0.58
0.44
0.40
0.42
0.49
0.58
0.67
0.79
0.99
1.25
1.54
1.80
1.96
2.00
1.93
1.81
1.73
1.76
1.96
2.32
2.76
3.07
2.95
2.16
0.65
-1.31
-3.10
-4.02
-3.57
-1.70
1.11
4.14
6.60
8.01
8.16
7.08
4.81
1.45
-2.73
-7.18
-11.09
-13.63
-14.32
-13.24
-10.98
-8.36
-6.06
-4.39
-3.30
-2.59
-2.14
-1.92
-1.97
-2.20
-2.35
-2.08
-1.17
0.33
2.10
3.68
4.68
4.98
4.72
4.20
3.73
3.47
3.45
3.61
3.87
4.21
4.58
4.97
5.28
5.42
5.30
4.87
4.13
3.07
1.69
-0.00
-1.94
-3.96
-5.80
-7.21
-8.00
-8.13
-7.72
-7.03
-6.36
-5.97
-6.00
-6.42
-7.01
-7.47
-7.56
-7.24
-6.67
-6.18
-6.05
-6.37
-6.98
-7.58
-7.94
-8.03
-8.10
-8.48
-9.39
-10.82
-12.54
-14.32
-16.04
-17.85
-19.98
-22.59
-25.61
-28.67
-31.31
-33.15
-34.12
-34.53
-34.95
-35.99
-38.08
-41.24
-45.03
-48.68
-51.38
-52.59
-52.35
-51.25
-50.13
-49.63
-49.79
-50.06
-49.57
-47.71
-44.40
-40.20
-35.93
-32.33
-30.02
-29.54
-31.61
-36.82
-44.85
-53.49
-58.50
-54.68
-38.21
-8.82
29.24
68.49
101.08
121.91
130.23
129.11
123.17
116.17
109.65
103.35
96.46
89.02
82.08
77.06
74.60
73.93
73.13
70.01
63.27
53.14
41.32
30.23
21.93
17.35
16.02
16.46
16.99
16.49
14.67
11.96
8.99
6.18
3.47
0.54
-2.90
-6.83
-10.82
-14.20
-16.31
-16.80
-15.71
-13.41
-10.50
-7.56
-5.02
-3.08
-1.68
-0.58
0.51
1.82
3.45
5.36
7.39
9.30
10.81
11.73
11.96
11.59
10.83
10.00
9.33
8.90
8.57
8.05
7.06
5.49
3.35
0.74
-2.27
-5.62
-9.24
-12.93
-16.31
-18.91
-20.37
-20.56
-19.71
-18.25
-16.66
-15.25
-14.09
-13.01
-11.82
-10.43
-8.87
-7.30
-5.89
-4.77
-3.94
-3.36
-2.99
-2.79
-2.77
-2.92
-3.14
-3.36
-3.48
-3.49
-3.40
-3.21
-2.87
-2.34
-1.58
-0.69
0.20
0.99
1.69
2.40
3.25
4.23
5.20
5.95
6.37
6.49
6.50
6.56
6.67
6.63
6.19
5.22
3.84
2.39
1.22
0.51
0.19
0.01
-0.27
-0.74
-1.26
-1.64
-1.72
-1.44
-0.87
-0.14
0.66
1.44
2.13
2.64
2.88
2.87
2.72
2.62
2.77
3.24
3.94
4.60
4.90
4.55
3.47
1.75
-0.28
-2.22
-3.69
-4.48
-4.60
-4.21
-3.58
-2.92
-2.35
-1.83
-1.32
-0.79
-0.28
0.16
0.50
0.75
0.95
1.12
1.19
1.03
0.51
-0.37
-1.50
-2.61
-3.42
-3.69
-3.39
-2.63
-1.67
-0.76
-0.11
0.21
0.25
0.12
-0.06
-0.21
-0.27
-0.23
-0.03
0.35
0.94
1.75
2.68
3.56
4.18
4.31
3.79
2.65
1.07
-0.60
-2.02
-2.94
-3.32
-3.30
-3.12
-2.97
-2.91
-2.88
-2.75
-2.42
-1.92
-1.29
-0.59
0.14
0.94
1.78
2.57
3.09
3.10
2.48
1.30
-0.14
-1.42
-2.17
-2.27
-1.89
-1.39
-1.11
-1.17
-1.44
-1.60
-1.39
-0.76
0.14
1.05
1.75
2.21
2.46
2.52
2.30
1.69
0.66
-0.64
-1.85
-2.59
-2.64
-2.09
-1.22
-0.41
0.07
0.19
0.05
-0.12
-0.17
-0.01
0.32
0.76
1.18
1.49
1.62
1.48
1.00
0.13
-1.09
-2.53
-3.91
-4.93
-5.33
-5.07
-4.27
-3.21
-2.14
-1.22
-0.50
0.08
0.59
1.06
1.49
1.88
2.23
2.51
2.73
2.85
2.89
2.85
2.75
2.63
2.48
2.34
2.21
2.11
2.00
1.84
1.56
1.15
0.62
0.03
-0.53
-0.98
-1.29
-1.42
-1.36
-1.10
-0.70
-0.25
0.10
0.25
0.16
-0.06
-0.29
-0.43
-0.45
-0.47
-0.62
-0.99
-1.54
-2.13
-2.56
-2.67
-2.41
-1.84
-1.12
-0.42
0.14
0.55
0.85
1.12
1.41
1.73
2.05
2.34
2.57
2.73
2.77
2.61
2.15
1.36
0.32
-0.75
-1.57
-1.95
-1.85
-1.40
-0.80
-0.25
0.21
0.60
0.96
1.31
1.56
1.65
1.55
1.34
1.16
1.11
1.22
1.41
1.55
1.54
1.29
0.76
-0.01
-0.99
-2.07
-3.11
-3.93
-4.38
-4.42
-4.09
-3.51
-2.79
-2.02
-1.22
-0.45
0.21
0.66
0.85
0.84
0.76
0.74
0.84
1.04
1.23
1.29
1.17
0.89
0.53
0.15
-0.23
-0.58
-0.88
-1.09
-1.15
-1.04
-0.77
-0.41
-0.04
0.27
0.49
0.60
0.62
0.55
0.41
0.22
0.02
-0.14
-0.20
-0.15
-0.02
0.10
0.17
0.15
0.07
-0.02
-0.06
-0.03
0.03
0.08
0.11
0.11
0.10
0.06
-0.01
-0.15
-0.37
-0.61
-0.80
-0.86
-0.77
-0.57
-0.33
-0.14
-0.03
-0.00
-0.03
-0.06
-0.04
0.05
0.20
0.35
0.46
0.46
0.38
0.29
0.26
0.34
0.50
0.67
0.78
0.77
0.68
0.58
0.54
0.54
0.53
0.46
0.35
0.27
0.31
0.56
0.99
1.48
1.91
2.18
2.25
2.15
1.91
1.56
1.10
0.55
-0.04
-0.62
-1.11
-1.45
-1.63
-1.66
-1.58
-1.44
-1.25
-1.04
-0.81
-0.60
-0.40
-0.23
-0.10
-0.04
-0.05
-0.14
-0.30
-0.49
-0.68
-0.81
-0.85
-0.79
-0.68
-0.59
-0.63
-0.83
-1.18
-1.55
-1.76
-1.72
-1.40
-0.92
-0.45
-0.15
-0.08
-0.16
-0.27
-0.29
-0.20
-0.05
0.07
0.14
0.16
0.20
0.31
0.47
0.64
0.73
0.69
0.51
0.25
0.02
-0.08
0.01
0.29
0.69
1.08
1.38
1.53
1.52
1.37
1.11
0.78
0.39
0.01
-0.27
-0.39
-0.35
-0.21
-0.07
0.01
0.08
0.21
0.46
0.80
1.10
1.20
1.00
0.55
0.01
-0.43
-0.66
-0.66
-0.52
-0.32
-0.08
0.21
0.60
1.05
1.45
1.68
1.67
1.47
1.25
1.21
1.50
2.09
2.87
3.60
4.08
4.20
4.00
3.65
3.40
3.48
4.03
5.00
6.13
7.07
7.55
7.51
7.20
7.07
7.55
8.86
10.84
13.05
14.96
16.23
16.87
17.32
18.20
20.10
23.20
27.19
31.32
34.70
36.74
37.43
37.48
38.01
40.09
44.18
49.85
55.99
61.24
64.69
66.26
66.69
67.19
69.08
73.46
80.88
91.02
102.19
110.97
112.64
102.45
77.68
39.41
-7.05
-53.61
-92.18
-117.53
-128.72
-128.63
-121.86
-112.53
-103.01
-93.98
-85.41
-77.48
-70.84
-66.19
-63.60
-62.31
-60.88
-58.04
-53.25
-46.95
-40.32
-34.73
-31.05
-29.36
-28.93
-28.58
-27.24
-24.42
-20.37
-15.95
-12.16
-9.72
-8.71
-8.63
-8.70
-8.24
-6.97
-5.10
-3.11
-1.50
-0.54
-0.19
-0.21
-0.29
-0.18
0.19
0.82
1.65
2.56
3.45
4.19
4.64
4.71
4.42
3.89
3.31
2.89
2.75
2.91
3.20
3.41
3.30
2.72
1.66
0.21
-1.43
-3.06
-4.55
-5.84
-6.90
-7.72
-8.22
-8.29
-7.87
-7.00
-5.83
-4.62
-3.62
-2.95
-2.62
-2.47
-2.32
-2.04
-1.57
-0.96
-0.28
0.38
0.92
1.25
1.29
1.00
0.48
-0.08
-0.47
-0.53
-0.25
0.18
0.51
0.50
0.07
-0.65
-1.39
-1.88
-1.97
-1.71
-1.30
-1.00
-1.00
-1.33
-1.81
-2.22
-2.35
-2.17
-1.78
-1.42
-1.25
-1.32
-1.50
-1.62
-1.52
-1.19
-0.73
-0.27
0.13
0.52
1.03
1.74
2.64
3.56
4.30
4.74
4.88
4.89
4.97
5.22
5.61
5.97
6.07
5.74
4.96
3.82
2.53
1.29
0.27
-0.48
-1.00
-1.38
-1.70
-2.01
-2.28
-2.44
-2.43
-2.27
-2.03
-1.80
-1.69
-1.70
-1.80
-1.86
-1.82
-1.65
-1.37
-1.09
-0.86
-0.71
-0.61
-0.53
-0.48
-0.47
-0.53
-0.67
-0.81
-0.87
-0.77
-0.53
-0.19
0.16
0.46
0.72
0.99
1.29
1.61
1.85
1.91
1.75
1.40
1.01
0.73
0.66
0.80
1.07
1.38
1.65
1.87
2.07
2.30
2.57
2.83
3.02
3.06
2.91
2.61
2.25
1.91
1.69
1.58
1.54
1.49
1.40
1.28
1.15
1.07
1.00
0.89
0.64
0.20
-0.41
-1.08
-1.70
-2.18
-2.54
-2.83
-3.10
-3.37
-3.61
-3.76
-3.77
-3.66
-3.50
-3.39
-3.38
-3.43
-3.47
-3.44
-3.31
-3.12
-2.98
-2.95
-3.08
-3.30
-3.50
-3.53
-3.29
-2.74
-1.93
-1.00
-0.16
0.40
0.54
0.32
-0.09
-0.41
-0.44
-0.10
0.50
1.18
1.78
2.23
2.56
2.83
3.05
3.17
3.14
2.99
2.79
2.60
2.44
2.21
1.77
1.07
0.20
-0.64
-1.25
-1.53
-1.54
-1.42
-1.36
-1.46
-1.72
-2.05
-2.27
-2.23
-1.86
-1.24
-0.56
-0.04
0.18
0.07
-0.25
-0.60
-0.85
-0.97
-1.02
-1.08
-1.20
-1.32
-1.35
-1.20
-0.83
-0.28
0.37
1.00
1.54
1.92
2.17
2.33
2.42
2.48
2.45
2.28
1.93
1.43
0.86
0.34
-0.04
-0.29
-0.46
-0.66
-0.93
-1.25
-1.51
-1.56
-1.34
-0.87
-0.29
0.21
0.48
0.47
0.23
-0.10
-0.41
-0.64
-0.74
-0.75
-0.68
-0.55
-0.33
-0.00
0.44
0.96
1.46
1.84
2.00
1.96
1.79
1.63
1.59
1.72
1.98
2.31
2.59
2.76
2.77
2.59
2.21
1.67
1.00
0.28
-0.41
-1.01
-1.47
-1.73
-1.74
-1.52
-1.15
-0.73
-0.36
-0.09
0.14
0.39
0.74
1.12
1.43
1.51
1.30
0.84
0.25
-0.31
-0.72
-0.98
-1.15
-1.35
-1.66
-2.11
-2.61
-2.97
-3.00
-2.61
-1.84
-0.87
-0.01
0.47
0.40
-0.22
-1.23
-2.30
-3.14
-3.51
-3.36
-2.83
-2.14
-1.53
-1.08
-0.76
-0.42
0.09
0.82
1.73
2.72
3.72
4.64
5.43
6.01
6.31
6.26
5.90
5.37
4.84
4.42
4.14
3.88
3.54
3.05
2.45
1.86
1.38
1.04
0.78
0.49
0.08
-0.46
-1.09
-1.68
-2.16
-2.44
-2.53
-2.48
-2.41
-2.44
-2.64
-2.97
-3.32
-3.54
-3.53
-3.29
-2.91
-2.51
-2.20
-2.02
-1.99
-2.11
-2.34
-2.65
-2.92
-3.04
-2.91
-2.53
-2.01
-1.46
-1.00
-0.68
-0.49
-0.42
-0.45
-0.56
-0.68
-0.69
-0.48
-0.01
0.68
1.43
2.06
2.47
2.65
2.67
2.61
2.49
2.27
1.91
1.42
0.87
0.40
0.15
0.17
0.40
0.71
0.92
0.91
0.67
0.29
-0.08
-0.29
-0.29
-0.11
0.14
0.33
0.40
0.37
0.31
0.27
0.28
0.31
0.34
0.36
0.44
0.62
0.89
1.22
1.51
1.69
1.75
1.74
1.75
1.82
1.94
2.02
1.94
1.68
1.29
0.89
0.59
0.40
0.32
0.29
0.26
0.23
0.18
0.13
0.04
-0.10
-0.28
-0.41
-0.38
-0.06
0.59
1.51
2.54
3.49
4.21
4.68
5.00
5.36
5.95
6.83
7.91
8.93
9.60
9.77
9.51
9.14
9.05
9.55
10.64
12.06
13.37
14.19
14.47
14.41
14.42
14.86
15.85
17.22
18.68
19.96
20.74
20.48
18.31
13.29
4.93
-6.28
-18.74
-30.23
-38.79
-43.50
-44.72
-43.66
-41.57
-39.07
-36.11
-32.33
-27.71
-22.74
-18.27
-15.00
-12.98
-11.67
-10.19
-7.91
-4.69
-1.04
2.17
4.13
4.49
3.43
1.56
-0.37
-1.86
-2.77
-3.34
-3.95
-4.87
-6.16
-7.62
-9.00
-10.06
-10.73
-11.10
-11.45
-12.04
-13.12
-14.77
-16.82
-18.90
-20.58
-21.58
-21.97
-22.14
-22.67
-24.08
-26.55
-29.92
-33.75
-37.62
-41.25
-44.58
-47.58
-50.16
-52.23
-53.75
-54.96
-56.36
-58.56
-61.96
-66.62
-72.28
-78.55
-85.18
-92.12
-99.41
-107.06
-115.06
-123.59
-133.02
-143.65
-154.96
-165.00
-170.37
-166.99
-151.46
-122.22
-80.26
-28.84
27.14
82.11
130.75
168.79
193.73
205.28
205.42
197.66
185.89
173.24
161.43
150.91
141.53
133.17
125.95
120.08
115.43
111.40
107.12
101.82
95.26
87.89
80.78
75.21
72.15
71.89
73.82
76.73
79.16
80.17
79.61
78.24
77.28
77.84
80.40
84.65
89.73
94.66
98.73
101.84
104.37
107.08
111.01
117.34
127.03
140.36
156.13
171.37
181.72
182.44
169.96
142.96
102.89
53.61
0.45
-50.96
-95.57
-129.74
-151.63
-161.35
-160.79
-152.99
-141.31
-128.56
-116.68
-106.85
-99.78
-95.92
-95.22
-96.88
-99.35
-100.78
-99.75
-95.90
-90.01
-83.48
-77.55
-72.67
-68.40
-63.88
-58.48
-52.23
-45.83
-40.18
-35.96
-33.23
-31.55
-30.25
-28.71
-26.67
-24.21
-21.60
-19.13
-16.99
-15.21
-13.67
-12.25
-10.82
-9.33
-7.79
-6.28
-4.90
-3.73
-2.82
-2.17
-1.68
-1.26
-0.84
-0.41
-0.03
0.24
0.34
0.32
0.27
0.33
0.62
1.12
1.71
2.18
2.38
2.22
1.80
1.31
0.92
0.75
0.76
0.87
0.94
0.91
0.75
0.48
0.14
-0.27
-0.73
-1.21
-1.67
-2.04
-2.30
-2.39
-2.35
-2.19
-1.99
-1.76
-1.51
-1.23
-0.90
-0.53
-0.17
0.09
0.13
-0.04
-0.35
-0.66
-0.80
-0.69
-0.38
-0.00
0.28
0.34
0.16
-0.18
-0.54
-0.79
-0.86
-0.74
-0.50
-0.21
0.07
0.31
0.49
0.59
0.61
0.56
0.49
0.42
0.38
0.37
0.34
0.25
0.08
-0.13
-0.32
-0.40
-0.31
-0.07
0.23
0.46
0.52
0.39
0.12
-0.16
-0.34
-0.40
-0.35
-0.28
-0.22
-0.18
-0.13
-0.06
-0.01
-0.02
-0.15
-0.32
-0.45
-0.43
-0.24
0.01
0.16
0.10
-0.17
-0.53
-0.82
-0.91
-0.76
-0.44
-0.06
0.28
0.55
0.76
0.92
1.03
1.06
0.98
0.79
0.51
0.19
-0.09
-0.28
-0.37
-0.37
-0.33
-0.31
-0.35
-0.47
-0.61
-0.69
-0.68
-0.57
-0.47
-0.52
-0.84
-1.45
-2.25
-3.02
-3.58
-3.86
-3.92
-3.94
-4.09
-4.47
-5.02
-5.59
-6.04
-6.29
-6.45
-6.70
-7.25
-8.21
-9.50
-10.88
-12.02
-12.73
-13.02
-13.18
-13.66
-14.87
-16.98
-19.83
-22.95
-25.78
-27.91
-29.28
-30.26
-31.49
-33.65
-37.11
-41.78
-47.07
-52.09
-55.99
-58.35
-59.31
-59.52
-59.77
-60.52
-61.61
-62.23
-61.34
-58.19
-52.82
-46.21
-39.94
-35.74
-34.97
-38.28
-45.37
-54.66
-63.12
-66.53
-60.44
-41.93
-11.21
27.71
68.07
102.85
127.52
141.52
147.83
150.76
153.53
156.87
159.47
159.52
156.41
151.24
146.18
143.19
143.09
145.53
149.34
153.05
154.76
152.09
142.36
123.51
95.28
59.97
22.08
-13.14
-41.46
-60.89
-71.79
-75.92
-75.27
-71.33
-65.15
-57.87
-51.02
-46.37
-45.27
-48.00
-53.59
-60.20
-65.77
-68.91
-69.18
-67.24
-64.29
-61.52
-59.55
-58.24
-56.89
-54.62
-50.92
-45.81
-39.83
-33.78
-28.32
-23.84
-20.40
-17.82
-15.86
-14.25
-12.69
-10.79
-8.11
-4.33
0.59
6.27
12.03
17.09
20.86
23.09
23.89
23.56
22.44
20.76
18.74
16.58
14.55
12.90
11.77
11.08
10.56
9.93
9.00
7.76
6.37
5.00
3.83
2.94
2.39
2.21
2.39
2.87
3.47
4.00
4.31
4.42
4.52
4.82
5.49
6.49
7.67
8.84
9.90
10.88
11.85
12.84
13.82
14.71
15.47
16.15
16.87
17.71
18.68
19.63
20.35
20.68
20.54
19.86
18.60
16.56
13.42
8.84
2.62
-5.09
-13.66
-22.05
-29.07
-33.81
-35.92
-35.71
-33.99
-31.75
-29.76
-28.46
-27.92
-27.99
-28.30
-28.34
-27.45
-25.05
-20.87
-15.18
-8.78
-2.74
2.01
5.03
6.46
6.83
6.76
6.69
6.83
7.17
7.63
8.11
8.54
8.85
9.07
9.28
9.61
10.16
10.88
11.50
11.68
11.12
9.73
7.76
5.71
4.25
3.91
4.84
6.60
8.21
8.45
6.27
1.25
-6.15
-14.79
-23.32
-30.77
-37.03
-42.70
-48.64
-55.22
-61.82
-66.93
-68.77
-66.28
-59.76
-51.01
-42.71
-37.51
-37.18
-42.26
-52.10
-65.05
-78.27
-87.89
-89.43
-79.23
-56.22
-23.04
14.21
48.08
72.54
85.15
87.43
83.32
76.84
70.30
64.12
57.78
51.18
45.20
41.21
40.07
41.35
43.49
44.59
43.38
39.80
34.91
30.33
27.42
26.77
28.04
30.22
32.08
32.73
31.89
29.94
27.76
26.26
26.12
27.50
30.09
33.18
36.04
38.06
39.04
39.11
38.76
38.66
39.46
41.57
44.97
49.01
52.35
53.15
49.55
40.32
25.40
6.21
-14.69
-34.30
-50.08
-60.59
-65.74
-66.40
-63.92
-59.58
-54.22
-48.33
-42.04
-35.31
-28.04
-20.21
-12.17
-4.81
0.52
2.49
0.48
-4.98
-12.29
-19.36
-24.49
-27.04
-27.43
-26.66
-25.57
-24.44
-23.03
-20.97
-18.21
-15.16
-12.48
-10.66
-9.72
-9.23
-8.55
-7.15
-4.92
-2.19
0.42
2.28
3.06
2.86
2.16
1.58
1.60
2.35
3.57
4.79
5.55
5.62
5.09
4.31
3.68
3.49
3.74
4.21
4.56
4.54
4.10
3.43
2.82
2.53
2.63
3.00
3.39
3.61
3.57
3.38
3.20
3.20
3.41
3.76
4.09
4.28
4.29
4.15
3.95
3.76
3.60
3.53
3.60
3.91
4.49
5.26
5.90
5.99
5.17
3.29
0.59
-2.40
-5.08
-6.98
-7.96
-8.12
-7.75
-7.09
-6.29
-5.40
-4.48
-3.63
-3.00
-2.72
-2.82
-3.20
-3.65
-3.97
-4.07
-3.95
-3.76
-3.65
-3.71
-3.88
-4.00
-3.88
-3.44
-2.70
-1.84
-1.06
-0.47
-0.03
0.36
0.82
1.40
2.00
2.51
2.82
2.97
3.04
3.17
3.40
3.72
3.99
4.07
3.82
3.22
2.32
1.24
0.21
-0.59
-1.04
-1.13
-0.96
-0.69
-0.45
-0.32
-0.26
-0.22
-0.15
-0.04
0.09
0.16
0.13
-0.02
-0.28
-0.62
-0.98
-1.30
-1.52
-1.61
-1.56
-1.35
-1.01
-0.60
-0.18
0.15
0.38
0.54
0.69
0.90
1.16
1.46
1.74
1.98
2.22
2.51
2.85
3.22
3.54
3.75
3.85
3.92
4.03
4.17
4.33
4.39
4.30
4.07
3.77
3.44
3.12
2.81
2.48
2.14
1.83
1.61
1.50
1.48
1.51
1.57
1.58
1.48
1.21
0.69
-0.06
-0.95
-1.81
-2.49
-2.92
-3.13
-3.29
-3.61
-4.28
-5.40
-6.97
-8.85
-10.77
-12.47
-13.69
-14.24
-14.07
-13.23
-11.87
-10.22
-8.53
-7.05
-5.96
-5.36
-5.15
-5.20
-5.33
-5.43
-5.49
-5.57
-5.74
-5.98
-6.18
-6.23
-6.02
-5.48
-4.66
-3.64
-2.61
-1.80
-1.38
-1.39
-1.69
-2.02
-2.05
-1.61
-0.66
0.64
2.07
3.46
4.75
5.95
7.07
8.07
8.85
9.33
9.52
9.46
9.20
8.79
8.18
7.38
6.44
5.51
4.74
4.22
3.91
3.70
3.44
3.09
2.67
2.30
2.05
1.96
1.97
2.03
2.09
2.11
2.11
2.03
1.81
1.39
0.73
-0.14
-1.15
-2.18
-3.14
-3.97
-4.62
-5.04
-5.18
-5.02
-4.54
-3.83
-2.96
-2.07
-1.26
-0.60
-0.17
0.00
-0.09
-0.41
-0.85
-1.26
-1.52
-1.57
-1.45
-1.28
-1.18
-1.19
-1.27
-1.33
-1.26
-1.05
-0.79
-0.61
-0.60
-0.81
-1.19
-1.64
-2.07
-2.43
-2.69
-2.82
-2.79
-2.60
-2.27
-1.87
-1.48
-1.16
-0.95
-0.82
-0.73
-0.66
-0.60
-0.56
-0.52
-0.43
-0.21
0.19
0.73
1.31
1.80
2.07
2.07
1.84
1.48
1.13
0.88
0.75
0.69
0.59
0.39
0.07
-0.33
-0.71
-0.98
-1.11
-1.12
-1.08
-1.02
-0.96
-0.89
-0.82
-0.80
-0.88
-1.07
-1.33
-1.51
-1.49
-1.26
-0.91
-0.61
-0.51
-0.61
-0.77
-0.78
-0.46
0.21
1.14
2.17
3.15
4.04
4.84
5.56
6.20
6.76
7.24
7.61
7.85
7.87
7.61
6.99
6.06
4.95
3.86
2.93
2.22
1.68
1.20
0.71
0.17
-0.42
-1.05
-1.74
-2.51
-3.30
-4.00
-4.45
-4.52
-4.26
-3.83
-3.45
-3.31
-3.44
-3.74
-4.04
-4.22
-4.25
-4.14
-3.93
-3.61
-3.17
-2.61
-2.01
-1.46
-1.09
-0.99
-1.17
-1.62
-2.27
-3.08
-4.06
-5.21
-6.53
-7.96
-9.39
-10.69
-11.82
-12.79
-13.74
-14.78
-16.02
-17.52
-19.32
-21.59
-24.57
-28.49
-33.46
-39.28
-45.52
-51.69
-57.47
-62.88
-68.25
-73.99
-80.39
-87.44
-94.83
-102.11
-108.94
-115.26
-121.26
-127.29
-133.59
-140.11
-146.49
-152.34
-157.59
-162.53
-167.50
-172.21
-175.23
-173.97
-165.39
-147.22
-118.79
-81.21
-36.64
12.68
64.84
118.02
169.71
216.41
254.12
279.75
292.45
294.18
288.89
280.95
273.58
268.16
264.49
261.61
258.83
256.02
253.54
252.01
251.97
253.67
256.66
259.73
260.99
258.49
250.60
236.52
216.07
189.28
156.17
117.03
73.07
26.79
-18.29
-58.68
-92.08
-117.96
-137.20
-151.15
-160.65
-165.79
-166.39
-162.75
-156.02
-147.83
-139.66
-132.33
-125.78
-119.46
-112.88
-105.89
-98.74
-91.90
-85.84
-80.80
-76.72
-73.18
-69.62
-65.58
-60.89
-55.75
-50.64
-46.04
-42.24
-39.25
-36.84
-34.73
-32.75
-30.88
-29.27
-28.06
-27.32
-26.98
-26.87
-26.73
-26.38
-25.73
-24.78
-23.64
-22.46
-21.34
-20.33
-19.43
-18.57
-17.76
-17.11
-16.86
-17.28
-18.58
-20.67
-23.16
-25.40
-26.66
-26.43
-24.57
-21.37
-17.45
-13.55
-10.28
-7.99
-6.69
-6.14
-5.94
-5.77
-5.49
-5.19
-5.11
-5.48
-6.44
-8.00
-10.06
-12.40
-14.60
-15.91
-15.37
-12.11
-5.76
3.09
12.89
21.59
27.40
29.55
28.51
25.76
22.98
21.29
20.87
21.06
20.89
19.64
17.17
13.69
9.45
4.35
-1.98
-9.91
-19.34
-29.48
-39.13
-47.28
-53.60
-58.70
-63.76
-69.92
-77.69
-86.83
-96.45
-105.46
-113.01
-118.73
-122.93
-126.35
-129.77
-133.35
-136.13
-135.84
-129.38
-113.83
-87.39
-49.90
-2.77
51.43
109.46
167.49
221.36
267.00
301.31
323.17
334.08
337.80
338.91
340.92
344.76
348.43
347.94
339.09
319.17
287.61
245.72
195.68
139.89
80.87
21.78
-33.25
-79.36
-112.22
-129.70
-132.84
-125.71
-113.97
-102.82
-95.47
-92.71
-93.40
-95.55
-97.37
-97.77
-96.45
-93.68
-90.05
-86.25
-82.79
-79.91
-77.53
-75.37
-73.13
-70.56
-67.52
-63.92
-59.66
-54.72
-49.25
-43.62
-38.42
-34.18
-31.15
-29.10
-27.35
-25.07
-21.64
-16.98
-11.60
-6.40
-2.27
0.20
0.98
0.50
-0.45
-1.10
-0.82
0.69
3.40
7.03
11.13
15.20
18.77
21.45
22.99
23.33
22.63
21.25
19.65
18.24
17.25
16.59
15.96
14.87
12.88
9.76
5.48
0.26
-5.46
-11.20
-16.53
-21.22
-25.34
-29.18
-32.99
-36.77
-40.07
-42.18
-42.50
-41.06
-38.59
-36.40
-35.85
-37.79
-42.37
-49.08
-56.67
-62.96
-64.87
-59.30
-44.60
-22.01
3.99
27.09
41.80
45.92
41.38
32.91
25.34
21.20
20.05
19.65
18.06
15.00
11.80
10.17
10.86
13.08
15.11
15.37
13.27
9.44
5.38
2.58
1.84
2.99
4.99
6.54
6.67
5.16
2.61
0.07
-1.47
-1.58
-0.51
1.00
2.14
2.37
1.64
0.33
-1.00
-1.86
-2.05
-1.68
-1.03
-0.43
-0.15
-0.29
-0.78
-1.42
-1.96
-2.18
-2.00
-1.50
-0.92
-0.50
-0.35
-0.43
-0.57
-0.62
-0.53
-0.41
-0.39
-0.57
-0.93
-1.37
-1.79
-2.12
-2.39
-2.62
-2.76
-2.74
-2.49
-2.02
-1.46
-0.97
-0.67
-0.55
-0.48
-0.29
0.12
0.73
1.41
2.00
2.42
2.65
2.76
2.82
2.84
2.77
2.53
2.11
1.57
1.07
0.75
0.69
0.83
1.04
1.18
1.20
1.12
1.02
0.94
0.90
0.85
0.73
0.53
0.28
0.04
-0.14
-0.24
-0.29
-0.35
-0.48
-0.72
-1.03
-1.32
-1.44
-1.31
-0.92
-0.42
-0.01
0.15
0.06
-0.17
-0.31
-0.24
0.02
0.32
0.47
0.35
0.02
-0.35
-0.55
-0.50
-0.27
-0.06
-0.03
-0.26
-0.65
-0.98
-1.06
-0.82
-0.35
0.12
0.39
0.37
0.14
-0.08
-0.10
0.18
0.67
1.15
1.44
1.41
1.12
0.73
0.41
0.26
0.28
0.40
0.50
0.51
0.44
0.33
0.24
0.22
0.28
0.37
0.45
0.46
0.40
0.31
0.20
0.11
0.04
-0.01
-0.05
-0.02
0.09
0.27
0.49
0.64
0.65
0.47
0.16
-0.23
-0.60
-0.90
-1.09
-1.16
-1.12
-1.00
-0.86
-0.73
-0.63
-0.55
-0.44
-0.23
0.07
0.42
0.70
0.82
0.73
0.48
0.15
-0.12
-0.24
-0.19
-0.06
0.06
0.08
-0.04
-0.23
-0.39
-0.41
-0.28
-0.04
0.21
0.38
0.42
0.35
0.20
0.03
-0.14
-0.31
-0.45
-0.56
-0.57
-0.47
-0.25
0.00
0.21
0.29
0.22
0.03
-0.17
-0.29
-0.29
-0.16
0.01
0.15
0.20
0.14
0.03
-0.06
-0.07
0.01
0.13
0.20
0.18
0.05
-0.11
-0.21
-0.19
-0.04
0.15
0.28
0.30
0.22
0.11
0.09
0.20
0.38
0.54
0.54
0.31
-0.11
-0.62
-1.06
-1.28
-1.22
-0.91
-0.43
0.03
0.35
0.46
0.37
0.17
-0.01
-0.08
-0.01
0.19
0.43
0.67
0.83
0.89
0.85
0.73
0.55
0.33
0.12
-0.06
-0.16
-0.17
-0.12
-0.05
-0.00
-0.03
-0.15
-0.39
-0.70
-1.07
-1.48
-1.95
-2.50
-3.15
-3.89
-4.65
-5.34
-5.88
-6.22
-6.41
-6.56
-6.77
-7.13
-7.66
-8.32
-9.01
-9.70
-10.34
-10.97
-11.63
-12.36
-13.24
-14.29
-15.55
-17.02
-18.72
-20.69
-22.98
-25.64
-28.68
-32.11
-35.88
-39.95
-44.23
-48.59
-52.86
-56.84
-60.37
-63.45
-66.40
-69.93
-74.98
-82.32
-92.08
-103.46
-114.77
-124.08
-129.78
-131.29
-129.12
-124.68
-119.79
-116.32
-115.94
-119.90
-128.53
-140.81
-154.03
-164.07
-166.52
-158.00
-137.16
-104.85
-63.47
-16.08
34.20
84.23
130.65
169.91
198.83
215.55
220.28
215.34
204.37
191.00
177.82
165.94
155.33
145.44
135.83
126.45
117.56
109.38
101.97
95.08
88.37
81.52
74.49
67.47
60.79
54.76
49.54
45.08
41.16
37.55
34.08
30.71
27.55
24.76
22.48
20.72
19.36
18.18
16.98
15.66
14.28
13.01
12.09
11.72
11.99
12.87
14.19
15.70
17.10
18.15
18.76
19.02
19.11
19.22
19.47
19.84
20.23
20.52
20.74
21.02
21.49
22.24
23.16
24.09
24.94
25.80
26.94
28.67
31.13
34.18
37.39
40.21
42.25
43.46
44.28
45.47
47.86
51.97
57.80
64.81
72.22
79.30
85.78
91.88
98.12
105.09
113.32
123.29
135.51
150.20
166.79
183.32
196.40
201.90
196.32
178.06
147.95
108.61
63.09
13.82
-37.56
-89.38
-138.96
-182.30
-215.09
-234.37
-239.89
-234.41
-222.43
-208.39
-195.04
-183.05
-171.59
-159.62
-146.85
-133.95
-122.05
-111.98
-103.76
-96.60
-89.46
-81.65
-73.37
-65.73
-60.24
-58.21
-60.02
-64.89
-71.08
-76.59
-79.92
-80.73
-79.89
-79.05
-79.81
-82.97
-88.15
-94.08
-99.05
-101.82
-102.14
-100.88
-99.75
-100.73
-105.48
-114.74
-127.88
-142.56
-154.94
-160.32
-154.39
-134.53
-100.82
-56.16
-5.48
45.35
91.12
128.12
154.67
171.03
178.99
181.12
179.89
176.89
172.32
165.33
154.81
140.49
123.52
106.05
90.34
77.73
68.18
60.68
54.09
47.91
42.34
37.91
34.77
32.45
30.07
26.83
22.63
18.07
14.10
11.48
10.44
10.50
10.82
10.58
9.36
7.24
4.76
2.61
1.35
1.16
1.84
2.91
3.81
4.15
3.77
2.80
1.52
0.27
-0.71
-1.32
-1.60
-1.66
-1.63
-1.58
-1.54
-1.46
-1.28
-0.96
-0.53
-0.06
0.38
0.73
1.00
1.22
1.41
1.57
1.64
1.57
1.37
1.07
0.78
0.56
0.43
0.36
0.30
0.19
0.03
-0.14
-0.27
-0.29
-0.18
0.05
0.30
0.46
0.44
0.23
-0.09
-0.40
-0.61
-0.68
-0.68
-0.70
-0.78
-0.92
-1.05
-1.09
-1.01
-0.85
-0.67
-0.53
-0.47
-0.49
-0.55
-0.61
-0.65
-0.67
-0.64
-0.56
-0.41
-0.17
0.15
0.49
0.75
0.82
0.64
0.25
-0.24
-0.67
-0.93
-0.99
-0.91
-0.77
-0.65
-0.57
-0.49
-0.38
-0.25
-0.09
0.05
0.13
0.17
0.14
0.08
-0.03
-0.15
-0.27
-0.37
-0.42
-0.43
-0.40
-0.34
-0.28
-0.21
-0.14
-0.09
-0.08
-0.11
-0.19
-0.30
-0.45
-0.61
-0.78
-0.92
-1.01
-1.02
-0.93
-0.80
-0.67
-0.60
-0.60
-0.66
-0.72
-0.74
-0.69
-0.59
-0.45
-0.32
-0.21
-0.10
-0.00
0.09
0.19
0.34
0.61
1.07
1.79
2.72
3.71
4.54
5.02
5.05
4.75
4.32
4.00
3.98
4.23
4.60
4.90
5.03
4.98
4.88
4.85
4.95
5.17
5.47
5.85
6.34
6.90
7.32
7.20
6.15
3.99
0.95
-2.37
-5.20
-7.00
-7.62
-7.38
-6.77
-6.21
-5.85
-5.61
-5.31
-4.90
-4.45
-4.10
-3.94
-3.93
-3.95
-3.83
-3.46
-2.89
-2.24
-1.67
-1.27
-1.02
-0.83
-0.58
-0.18
0.30
0.71
0.85
0.64
0.14
-0.47
-0.96
-1.22
-1.26
-1.23
-1.29
-1.52
-1.85
-2.19
-2.42
-2.53
-2.55
-2.54
-2.52
-2.45
-2.29
-2.04
-1.74
-1.51
-1.44
-1.58
-1.85
-2.11
-2.20
-2.01
-1.55
-0.89
-0.22
0.31
0.58
0.59
0.45
0.32
0.31
0.44
0.67
0.93
1.17
1.42
1.69
1.99
2.25
2.34
2.18
1.76
1.14
0.45
-0.17
-0.64
-0.92
-1.01
-0.96
-0.82
-0.65
-0.49
-0.34
-0.18
0.04
0.30
0.55
0.68
0.63
0.37
-0.01
-0.38
-0.62
-0.68
-0.57
-0.33
-0.02
0.33
0.66
0.90
0.97
0.83
0.48
0.01
-0.47
-0.86
-1.13
-1.29
-1.38
-1.46
-1.57
-1.73
-1.95
-2.21
-2.45
-2.62
-2.66
-2.56
-2.37
-2.15
-1.96
-1.86
-1.89
-2.08
-2.45
-2.98
-3.60
-4.14
-4.45
-4.42
-4.05
-3.45
-2.76
-2.08
-1.39
-0.63
0.26
1.30
2.42
3.51
4.47
5.24
5.82
6.18
6.32
6.21
5.87
5.35
4.74
4.13
3.56
3.04
2.58
2.25
2.20
2.58
3.45
4.75
6.19
7.46
8.28
8.50
8.19
7.52
6.68
5.79
4.87
3.87
2.76
1.57
0.39
-0.66
-1.46
-1.98
-2.28
-2.46
-2.62
-2.81
-3.02
-3.18
-3.25
-3.23
-3.14
-3.03
-2.88
-2.67
-2.33
-1.84
-1.27
-0.74
-0.39
-0.26
-0.30
-0.38
-0.36
-0.14
0.28
0.80
1.22
1.27
0.70
-0.62
-2.65
-5.11
-7.62
-9.80
-11.40
-12.36
-12.77
-12.76
-12.44
-11.82
-10.91
-9.72
-8.35
-6.92
-5.57
-4.38
-3.30
-2.22
-0.94
0.72
2.88
5.50
8.42
11.33
13.90
15.87
17.11
17.61
17.50
16.93
16.06
14.97
13.64
12.03
10.11
7.89
5.45
2.98
0.65
-1.40
-3.10
-4.43
-5.40
-6.01
-6.25
-6.15
-5.75
-5.18
-4.59
-4.12
-3.89
-3.92
-4.19
-4.59
-4.96
-5.10
-4.87
-4.25
-3.35
-2.42
-1.70
-1.33
-1.28
-1.38
-1.43
-1.33
-1.09
-0.82
-0.64
-0.52
-0.39
-0.13
0.28
0.73
1.03
1.02
0.65
0.04
-0.63
-1.21
-1.60
-1.84
-2.01
-2.17
-2.37
-2.61
-2.85
-3.04
-3.10
-2.97
-2.63
-2.13
-1.58
-1.14
-0.92
-0.93
-1.09
-1.26
-1.29
-1.11
-0.74
-0.27
0.18
0.51
0.70
0.77
0.75
0.69
0.59
0.49
0.41
0.42
0.59
0.96
1.53
2.24
2.99
3.66
4.14
4.40
4.39
4.12
3.60
2.81
1.81
0.70
-0.37
-1.21
-1.69
-1.78
-1.60
-1.35
-1.20
-1.26
-1.47
-1.67
-1.74
-1.62
-1.40
-1.23
-1.23
-1.41
-1.68
-1.87
-1.87
-1.63
-1.24
-0.82
-0.44
-0.15
0.10
0.37
0.72
1.13
1.55
1.89
2.09
2.12
2.00
1.79
1.57
1.36
1.14
0.86
0.48
0.02
-0.44
-0.80
-0.96
-0.90
-0.66
-0.33
-0.00
0.24
0.36
0.38
0.31
0.21
0.14
0.14
0.24
0.40
0.56
0.62
0.52
0.24
-0.14
-0.52
-0.78
-0.85
-0.71
-0.40
-0.01
0.42
0.80
1.10
1.27
1.28
1.16
0.95
0.71
0.52
0.42
0.40
0.46
0.57
0.67
0.75
0.75
0.63
0.40
0.09
-0.20
-0.38
-0.44
-0.42
-0.43
-0.57
-0.81
-1.05
-1.14
-0.99
-0.61
-0.12
0.33
0.61
0.68
0.61
0.46
0.30
0.17
0.11
0.15
0.32
0.60
0.91
1.14
1.19
1.02
0.70
0.32
-0.01
-0.26
-0.40
-0.45
-0.45
-0.44
-0.42
-0.40
-0.36
-0.27
-0.10
0.14
0.41
0.58
0.56
0.33
-0.08
-0.52
-0.84
-0.96
-0.88
-0.70
-0.56
-0.59
-0.84
-1.25
-1.70
-2.08
-2.31
-2.40
-2.40
-2.38
-2.35
-2.30
-2.17
-1.95
-1.73
-1.59
-1.63
-1.86
-2.21
-2.59
-2.92
-3.18
-3.42
-3.67
-3.92
-4.17
-4.37
-4.50
-4.59
-4.72
-4.92
-5.20
-5.52
-5.77
-5.89
-5.87
-5.75
-5.60
-5.44
-5.27
-4.98
-4.47
-3.60
-2.27
-0.52
1.55
3.75
5.89
7.82
9.45
10.70
11.54
11.95
11.97
11.69
11.29
10.92
10.65
10.44
10.18
9.77
9.19
8.51
7.87
7.35
6.98
6.73
6.57
6.48
6.46
6.53
6.62
6.68
6.63
6.42
6.04
5.45
4.62
3.53
2.22
0.82
-0.48
-1.53
-2.24
-2.68
-3.00
-3.39
-3.98
-4.79
-5.71
-6.54
-7.14
-7.40
-7.34
-7.07
-6.72
-6.39
-6.14
-5.92
-5.64
-5.24
-4.70
-4.05
-3.40
-2.81
-2.31
-1.87
-1.45
-1.01
-0.59
-0.28
-0.18
-0.32
-0.66
-1.08
-1.44
-1.65
-1.70
-1.64
-1.52
-1.36
-1.17
-0.92
-0.65
-0.40
-0.24
-0.23
-0.35
-0.53
-0.67
-0.69
-0.56
-0.31
-0.03
0.23
0.39
0.43
0.37
0.28
0.24
0.29
0.42
0.55
0.58
0.46
0.20
-0.08
-0.25
-0.22
-0.01
0.27
0.47
0.49
0.35
0.12
-0.07
-0.14
-0.07
0.07
0.24
0.39
0.48
0.49
0.37
0.08
-0.43
-1.12
-1.87
-2.50
-2.85
-2.81
-2.37
-1.62
-0.73
0.10
0.71
1.03
1.04
0.84
0.56
0.33
0.28
0.41
0.67
0.94
1.13
1.19
1.16
1.10
1.07
1.11
1.17
1.21
1.18
1.08
0.93
0.74
0.53
0.28
0.01
-0.25
-0.42
-0.42
-0.21
0.18
0.65
1.05
1.24
1.15
0.83
0.37
-0.09
-0.45
-0.63
-0.62
-0.42
-0.05
0.42
0.90
1.29
1.51
1.51
1.33
1.00
0.62
0.27
-0.00
-0.13
-0.12
-0.01
0.16
0.32
0.44
0.51
0.55
0.54
0.47
0.32
0.12
-0.07
-0.18
-0.16
-0.05
0.10
0.21
0.25
0.18
0.03
-0.16
-0.37
-0.54
-0.61
-0.57
-0.43
-0.19
0.08
0.36
0.59
0.70
0.60
0.26
-0.28
-0.88
-1.35
-1.53
-1.36
-0.93
-0.41
0.02
0.26
0.31
0.23
0.08
-0.08
-0.21
-0.29
-0.32
-0.31
-0.25
-0.20
-0.20
-0.30
-0.53
-0.90
-1.35
-1.75
-1.98
-1.95
-1.64
-1.20
-0.79
-0.58
-0.62
-0.80
-0.93
-0.84
-0.46
0.13
0.79
1.38
1.82
2.12
2.27
2.27
2.08
1.71
1.23
0.75
0.39
0.22
0.26
0.42
0.62
0.75
0.77
0.67
0.48
0.25
0.08
-0.03
-0.08
-0.15
-0.29
-0.52
-0.77
-0.95
-1.00
-0.94
-0.85
-0.82
-0.87
-0.94
-0.96
-0.84
-0.62
-0.37
-0.20
-0.14
-0.14
-0.13
-0.03
0.11
0.20
0.13
-0.08
-0.33
-0.45
-0.30
0.08
0.54
0.85
0.88
0.65
0.35
0.18
0.25
0.50
0.77
0.93
0.96
0.95
1.00
1.15
1.33
1.37
1.21
0.86
0.50
0.27
0.24
0.36
0.48
0.47
0.28
-0.02
-0.33
-0.59
-0.78
-0.92
-1.05
-1.18
-1.27
-1.29
-1.21
-1.02
-0.77
-0.50
-0.28
-0.14
-0.11
-0.20
-0.39
-0.65
-0.91
-1.11
-1.19
-1.08
-0.76
-0.30
0.21
0.60
0.77
0.69
0.44
0.17
0.02
0.10
0.39
0.80
1.21
1.51
1.70
1.81
1.89
2.01
2.14
2.27
2.37
2.47
2.62
2.88
3.29
3.82
4.39
4.95
5.47
5.99
6.55
7.17
7.79
8.35
8.81
9.26
9.89
10.91
12.44
14.38
16.48
18.41
20.01
21.36
22.77
24.65
27.31
30.79
34.87
39.15
43.22
46.83
50.00
53.02
56.33
60.35
65.30
71.12
77.44
83.73
89.48
94.40
98.64
102.94
108.57
116.95
128.84
143.41
157.85
167.64
167.78
154.37
125.85
83.62
31.66
-24.33
-78.21
-124.43
-158.99
-180.01
-187.97
-185.44
-176.28
-164.49
-153.14
-143.78
-136.46
-130.41
-124.67
-118.51
-111.65
-104.07
-95.93
-87.50
-79.12
-71.20
-64.10
-58.07
-52.99
-48.41
-43.68
-38.25
-31.95
-25.18
-18.69
-13.29
-9.40
-6.87
-5.06
-3.19
-0.70
2.48
5.99
9.22
11.54
12.58
12.31
11.00
9.15
7.29
5.87
5.07
4.84
4.93
5.07
5.09
4.98
4.77
4.48
4.04
3.36
2.41
1.33
0.41
-0.09
-0.04
0.43
1.01
1.36
1.30
0.91
0.41
0.07
0.01
0.19
0.47
0.69
0.79
0.74
0.59
0.37
0.14
-0.07
-0.20
-0.23
-0.16
-0.07
-0.03
-0.07
-0.18
-0.31
-0.40
-0.48
-0.60
-0.79
-1.02
-1.18
-1.09
-0.69
-0.05
0.62
1.08
1.14
0.79
0.19
-0.44
-0.87
-0.99
-0.81
-0.41
0.05
0.46
0.71
0.78
0.67
0.44
0.14
-0.14
-0.34
-0.40
-0.29
-0.01
0.40
0.85
1.24
1.49
1.55
1.40
1.10
0.70
0.30
-0.05
-0.29
-0.40
-0.40
-0.32
-0.21
-0.10
-0.01
0.07
0.18
0.28
0.33
0.23
-0.09
-0.60
-1.22
-1.75
-2.05
-2.01
-1.67
-1.17
-0.68
-0.34
-0.18
-0.16
-0.17
-0.17
-0.15
-0.16
-0.26
-0.46
-0.69
-0.86
-0.89
-0.77
-0.55
-0.33
-0.16
-0.06
0.03
0.14
0.30
0.50
0.71
0.91
1.08
1.25
1.40
1.54
1.64
1.69
1.64
1.48
1.17
0.73
0.21
-0.28
-0.61
-0.71
-0.57
-0.28
0.03
0.25
0.37
0.41
0.41
0.37
0.25
-0.00
-0.34
-0.67
-0.83
-0.71
-0.34
0.15
0.57
0.78
0.74
0.51
0.25
0.05
-0.06
-0.15
-0.28
-0.49
-0.68
-0.73
-0.54
-0.10
0.43
0.85
1.00
0.84
0.49
0.13
-0.10
-0.13
-0.04
0.07
0.12
0.11
0.09
0.09
0.13
0.19
0.22
0.20
0.13
0.02
-0.08
-0.16
-0.20
-0.18
-0.12
-0.06
-0.03
-0.05
-0.15
-0.28
-0.39
-0.46
-0.46
-0.41
-0.35
-0.32
-0.31
-0.33
-0.36
-0.38
-0.37
-0.30
-0.17
0.03
0.29
0.58
0.83
0.99
1.03
0.94
0.74
0.50
0.28
0.11
0.02
0.01
0.05
0.11
0.19
0.28
0.39
0.48
0.54
0.53
0.41
0.21
-0.02
-0.23
-0.34
-0.31
-0.14
0.13
0.43
0.67
0.75
0.62
0.26
-0.25
-0.81
-1.31
-1.64
-1.75
-1.69
-1.52
-1.35
-1.21
-1.14
-1.11
-1.07
-1.00
-0.87
-0.70
-0.50
-0.30
-0.12
-0.02
-0.03
-0.17
-0.41
-0.68
-0.89
-0.94
-0.81
-0.55
-0.26
-0.04
0.05
0.00
-0.14
-0.31
-0.42
-0.46
-0.39
-0.25
-0.08
0.09
0.24
0.36
0.47
0.57
0.67
0.76
0.81
0.82
0.75
0.62
0.43
0.23
0.03
-0.09
-0.12
-0.01
0.23
0.56
0.92
1.25
1.47
1.55
1.49
1.32
1.13
0.97
0.93
1.02
1.21
1.43
1.56
1.52
1.26
0.83
0.35
-0.05
-0.27
-0.29
-0.17
0.00
0.14
0.19
0.17
0.08
-0.06
-0.24
-0.48
-0.72
-0.90
-0.95
-0.83
-0.60
-0.36
-0.22
-0.21
-0.29
-0.33
-0.27
-0.07
0.19
0.39
0.46
0.41
0.32
0.25
0.24
0.23
0.18
0.06
-0.07
-0.10
0.05
0.36
0.72
0.99
1.08
0.98
0.79
0.64
0.60
0.71
0.90
1.09
1.21
1.24
1.19
1.05
0.84
0.54
0.17
-0.21
-0.56
-0.79
-0.89
-0.88
-0.83
-0.79
-0.82
-0.91
-1.01
-1.09
-1.12
-1.10
-1.05
-0.98
-0.89
-0.76
-0.59
-0.43
-0.32
-0.32
-0.46
-0.69
-0.90
-0.98
-0.86
-0.54
-0.07
0.41
0.81
1.03
1.09
1.05
1.01
1.06
1.24
1.54
1.89
2.20
2.36
2.34
2.13
1.76
1.32
0.86
0.44
0.08
-0.23
-0.50
-0.72
-0.89
-1.00
-1.03
-1.03
-1.06
-1.17
-1.38
-1.66
-1.96
-2.19
-2.28
-2.17
-1.88
-1.44
-0.96
-0.51
-0.18
-0.01
0.01
-0.05
-0.15
-0.23
-0.33
-0.46
-0.64
-0.85
-1.02
-1.11
-1.07
-0.91
-0.65
-0.33
0.04
0.43
0.82
1.16
1.40
1.50
1.45
1.30
1.10
0.94
0.84
0.81
0.82
0.86
0.92
1.03
1.22
1.46
1.68
1.75
1.50
0.82
-0.34
-1.87
-3.57
-5.15
-6.39
-7.16
-7.49
-7.55
-7.59
-7.80
-8.27
-8.92
-9.59
-10.12
-10.45
-10.69
-11.04
-11.71
-12.75
-13.96
-14.95
-15.26
-14.57
-12.87
-10.47
-7.82
-5.40
-3.49
-2.17
-1.32
-0.72
-0.08
1.02
3.01
6.22
10.71
16.06
21.41
25.75
28.24
28.61
27.19
24.77
22.16
19.84
17.84
15.84
13.48
10.69
7.75
5.11
3.17
2.00
1.37
0.82
-0.00
-1.20
-2.53
-3.63
-4.16
-4.05
-3.48
-2.78
-2.27
-2.11
-2.25
-2.58
-2.92
-3.18
-3.34
-3.42
-3.46
-3.50
-3.58
-3.68
-3.76
-3.72
-3.43
-2.86
-2.08
-1.29
-0.73
-0.52
-0.63
-0.91
-1.15
-1.23
-1.15
-0.98
-0.83
-0.70
-0.57
-0.35
-0.04
0.30
0.58
0.73
0.76
0.71
0.66
0.62
0.56
0.42
0.22
0.01
-0.10
-0.03
0.20
0.49
0.69
0.70
0.51
0.26
0.08
0.08
0.23
0.43
0.54
0.44
0.16
-0.21
-0.53
-0.69
-0.66
-0.50
-0.29
-0.08
0.13
0.42
0.83
1.32
1.71
1.81
1.49
0.81
-0.03
-0.75
-1.11
-1.04
-0.64
-0.13
0.29
0.49
0.47
0.36
0.27
0.31
0.47
0.66
0.79
0.78
0.63
0.42
0.24
0.17
0.23
0.36
0.51
0.62
0.68
0.73
0.76
0.75
0.67
0.44
0.06
-0.44
-0.94
-1.32
-1.46
-1.33
-0.96
-0.46
0.05
0.51
0.88
1.18
1.40
1.53
1.49
1.25
0.78
0.15
-0.53
-1.11
-1.54
-1.81
-1.96
-2.02
-2.01
-1.89
-1.63
-1.24
-0.78
-0.38
-0.14
-0.14
-0.36
-0.74
-1.14
-1.40
-1.43
-1.20
-0.83
-0.51
-0.43
-0.72
-1.30
-2.01
-2.60
-2.92
-2.92
-2.66
-2.25
-1.73
-1.10
-0.33
0.55
1.44
2.18
2.63
2.75
2.61
2.37
2.16
2.04
1.95
1.81
1.57
1.29
1.07
1.01
1.06
1.12
1.03
0.70
0.18
-0.40
-0.85
-1.09
-1.17
-1.21
-1.37
-1.69
-2.10
-2.49
-2.73
-2.74
-2.57
-2.31
-2.12
-2.13
-2.38
-2.80
-3.21
-3.37
-3.10
-2.34
-1.22
0.03
1.20
2.16
2.95
3.67
4.40
5.11
5.65
5.86
5.67
5.16
4.50
3.87
3.41
3.12
2.94
2.80
2.66
2.50
2.32
2.11
1.85
1.54
1.19
0.84
0.55
0.37
0.31
0.30
0.28
0.21
0.09
-0.02
-0.05
0.01
0.13
0.23
0.23
0.10
-0.11
-0.32
-0.47
-0.54
-0.54
-0.53
-0.53
-0.56
-0.61
-0.67
-0.71
-0.71
-0.66
-0.55
-0.44
-0.37
-0.42
-0.60
-0.86
-1.07
-1.15
-1.08
-0.94
-0.85
-0.91
-1.13
-1.46
-1.77
-1.98
-2.07
-2.03
-1.86
-1.54
-1.07
-0.49
0.10
0.56
0.77
0.70
0.41
0.08
-0.17
-0.26
-0.21
-0.10
-0.00
0.04
0.06
0.14
0.35
0.68
1.08
1.46
1.72
1.83
1.80
1.70
1.67
1.78
2.08
2.54
3.04
3.47
3.75
3.88
3.91
3.91
3.93
3.96
3.97
3.98
4.06
4.32
4.88
5.77
6.95
8.29
9.58
10.62
11.28
11.64
11.87
12.26
13.00
14.12
15.45
16.73
17.71
18.33
18.77
19.27
20.07
21.23
22.56
23.74
24.41
24.34
23.45
21.94
20.07
18.18
16.48
15.02
13.69
12.24
10.29
7.36
3.07
-2.75
-9.79
-17.36
-24.68
-31.26
-37.24
-43.47
-51.17
-61.48
-75.00
-91.53
-110.03
-128.88
-146.27
-160.65
-171.12
-177.57
-180.72
-181.77
-181.96
-182.23
-183.06
-184.54
-186.73
-189.86
-194.25
-199.80
-205.53
-209.28
-208.07
-199.09
-180.51
-152.38
-116.33
-74.73
-29.55
18.10
67.63
117.90
166.37
209.11
241.94
262.13
269.59
266.91
258.24
247.59
237.61
229.27
222.28
216.07
210.39
205.47
201.69
199.27
198.01
197.42
196.94
196.22
195.27
194.48
194.34
195.16
196.87
199.06
201.26
203.14
204.45
204.70
202.72
196.49
183.58
161.92
130.51
89.83
41.71
-10.99
-64.70
-115.35
-158.75
-191.26
-210.73
-217.25
-213.27
-202.81
-190.02
-177.84
-167.52
-158.92
-151.38
-144.43
-138.05
-132.41
-127.52
-123.06
-118.57
-113.74
-108.66
-103.76
-99.67
-96.83
-95.33
-94.88
-94.95
-95.07
-95.06
-95.10
-95.61
-97.08
-99.74
-103.42
-107.55
-111.43
-114.48
-116.50
-117.69
-118.39
-118.88
-119.10
-118.74
-117.37
-114.75
-110.93
-106.19
-100.90
-95.15
-88.74
-81.11
-71.56
-59.31
-43.48
-23.26
1.80
31.18
63.01
94.08
120.65
139.69
149.93
152.29
149.28
143.78
137.91
132.44
127.09
121.28
114.78
107.89
101.21
95.14
89.66
84.35
78.77
72.71
66.36
60.29
55.11
51.20
48.50
46.52
44.53
41.88
38.32
34.04
29.56
25.43
21.96
19.13
16.65
14.22
11.65
8.99
6.43
4.18
2.38
1.02
0.04
-0.69
-1.22
-1.61
-1.85
-1.92
-1.77
-1.32
-0.49
0.72
2.22
3.77
5.07
5.85
6.01
5.63
4.96
4.28
3.79
3.55
3.50
3.51
3.50
3.45
3.37
3.31
3.30
3.32
3.35
3.37
3.36
3.29
3.16
2.97
2.77
2.61
2.51
2.45
2.40
2.30
2.15
2.00
1.90
1.89
1.93
1.98
2.02
2.04
2.08
2.19
2.35
2.54
2.69
2.77
2.77
2.74
2.73
2.78
2.93
3.18
3.51
3.91
4.37
4.88
5.46
6.12
6.86
7.63
8.34
8.92
9.38
9.86
10.58
11.78
13.58
15.89
18.40
20.70
22.50
23.80
24.90
26.32
28.54
31.75
35.80
40.27
44.71
48.85
52.76
56.81
61.53
67.31
74.25
82.07
90.14
97.81
104.59
110.45
115.87
121.66
128.62
137.38
148.30
161.39
176.21
191.49
204.90
213.23
213.16
202.30
180.16
148.28
109.44
66.30
20.42
-27.70
-77.52
-127.13
-172.76
-209.56
-233.49
-243.10
-240.14
-228.75
-213.56
-197.93
-183.24
-169.20
-155.06
-140.56
-126.26
-113.07
-101.68
-92.00
-83.35
-74.87
-66.05
-56.94
-48.18
-40.57
-34.68
-30.60
-27.84
-25.60
-23.13
-20.14
-16.86
-13.93
-11.95
-11.15
-11.19
-11.43
-11.27
-10.53
-9.53
-8.90
-9.23
-10.74
-13.24
-16.25
-19.25
-21.86
-23.84
-25.07
-25.46
-24.97
-23.66
-21.71
-19.41
-17.05
-14.88
-12.96
-11.28
-9.73
-8.26
-6.83
-5.47
-4.20
-2.97
-1.72
-0.40
0.91
2.01
2.56
2.28
1.11
-0.75
-2.85
-4.66
-5.85
-6.36
-6.45
-6.51
-6.86
-7.56
-8.47
-9.26
-9.69
-9.71
-9.45
-9.23
-9.33
-9.84
-10.67
-11.54
-12.18
-12.52
-12.76
-13.29
-14.50
-16.55
-19.31
-22.39
-25.39
-28.08
-30.50
-32.86
-35.40
-38.31
-41.70
-45.61
-50.07
-55.02
-60.27
-65.49
-70.29
-74.42
-77.98
-81.40
-85.18
-89.49
-93.89
-97.45
-99.20
-98.74
-96.57
-93.94
-92.45
-93.61
-98.54
-107.80
-121.14
-137.06
-152.56
-163.35
-164.81
-153.41
-127.87
-89.60
-42.11
10.10
62.63
111.64
153.83
186.49
207.73
217.06
215.87
207.23
195.05
182.91
173.04
166.07
161.46
158.08
154.87
151.09
146.30
140.34
133.26
125.44
117.55
110.34
104.39
99.81
96.22
93.17
90.39
88.07
86.66
86.47
87.31
88.66
90.16
92.15
95.43
100.50
106.57
110.90
109.42
97.85
73.10
33.98
-18.79
-82.80
-153.87
-225.66
-289.79
-336.91
-358.98
-351.97
-317.59
-263.10
-199.13
-136.42
-83.02
-43.08
-17.13
-3.37
0.85
-1.88
-9.33
-19.76
-31.72
-43.70
-53.62
-58.62
-55.75
-43.17
-21.47
5.87
33.48
56.34
71.84
80.72
86.12
91.31
97.63
103.86
107.39
106.24
100.67
93.16
87.02
84.64
86.41
91.04
96.38
100.32
101.12
97.64
89.38
76.75
61.31
45.45
31.61
21.28
14.44
9.71
5.35
0.15
-5.95
-12.15
-17.58
-21.88
-25.37
-28.58
-31.64
-34.09
-35.06
-33.88
-30.49
-25.65
-20.66
-16.85
-15.03
-15.26
-16.86
-18.73
-19.86
-19.67
-18.20
-16.01
-13.91
-12.53
-12.07
-12.23
-12.36
-11.85
-10.45
-8.42
-6.47
-5.34
-5.48
-6.77
-8.56
-10.06
-10.65
-10.21
-9.06
-7.72
-6.54
-5.47
-4.10
-2.01
0.95
4.48
7.94
10.64
12.12
12.26
11.23
9.34
7.06
4.99
3.99
4.95
8.51
14.68
22.77
31.56
39.84
46.89
52.62
57.44
61.76
65.79
69.48
72.71
75.60
78.60
82.32
87.23
93.43
100.53
107.75
114.02
118.31
119.98
119.04
116.43
113.95
114.00
118.79
129.40
144.80
161.73
175.29
180.39
173.48
153.55
121.98
81.44
34.63
-16.36
-69.43
-121.50
-168.04
-203.87
-224.94
-230.31
-222.76
-207.69
-190.90
-176.37
-165.39
-157.00
-149.40
-141.23
-132.16
-122.65
-113.38
-104.77
-96.86
-89.42
-82.20
-75.06
-68.17
-61.89
-56.43
-51.62
-46.78
-41.00
-33.78
-25.42
-17.08
-10.22
-5.89
-4.18
-4.33
-5.28
-6.29
-7.26
-8.43
-9.92
-11.43
-12.35
-12.18
-10.99
-9.44
-8.46
-8.68
-10.16
-12.39
-14.66
-16.49
-17.82
-18.99
-20.40
-22.27
-24.49
-26.77
-28.84
-30.68
-32.47
-34.38
-36.45
-38.58
-40.69
-43.00
-46.01
-50.19
-55.55
-61.31
-66.05
-68.01
-65.76
-58.68
-47.32
-33.29
-18.95
-6.69
1.79
5.98
6.70
5.56
4.24
3.72
4.11
4.94
5.75
6.54
7.70
9.53
11.83
13.75
14.13
12.08
7.38
0.57
-7.23
-14.68
-20.59
-24.25
-25.81
-26.62
-29.25
-36.94
-52.42
-76.30
-105.95
-135.45
-156.86
-162.68
-148.30
-113.88
-64.68
-9.91
39.91
76.33
95.92
101.91
103.36
111.87
136.86
181.14
239.06
298.03
343.12
362.03
349.07
306.46
242.97
171.38
105.77
59.22
41.61
57.30
103.31
169.14
239.03
296.30
328.36
330.07
304.20
258.87
203.61
145.82
89.30
34.84
-17.85
-68.18
-114.01
-152.14
-179.96
-196.66
-203.60
-203.49
-199.14
-192.41
-183.67
-172.67
-159.48
-145.28
-132.18
-122.32
-116.69
-114.51
-113.55
-111.19
-105.67
-96.81
-86.00
-75.46
-67.19
-62.14
-59.99
-59.47
-59.12
-58.00
-56.05
-53.91
-52.33
-51.55
-51.10
-50.16
-48.17
-45.33
-42.69
-41.46
-42.31
-44.80
-47.59
-49.19
-48.85
-47.06
-45.32
-45.42
-48.80
-55.97
-66.21
-77.49
-86.64
-89.96
-84.46
-69.16
-46.03
-19.68
4.15
20.64
27.50
25.43
17.21
6.29
-4.40
-12.88
-17.92
-18.79
-15.18
-7.46
3.17
14.80
25.34
32.98
36.64
36.14
32.26
26.53
20.86
16.95
15.69
16.82
19.10
20.92
21.21
19.91
18.02
17.09
18.49
22.84
29.79
38.11
46.15
52.38
55.89
56.63
55.42
53.60
52.38
52.20
52.29
50.73
45.18
33.98
17.01
-3.88
-25.45
-44.22
-57.85
-65.81
-69.44
-71.06
-72.63
-74.57
-75.19
-70.98
-57.64
-31.72
7.86
58.84
115.83
171.72
219.89
256.32
280.56
295.24
304.27
310.81
315.92
318.40
315.80
305.90
287.70
261.80
229.85
193.67
154.39
112.18
66.42
16.26
-38.56
-96.85
-155.64
-210.51
-256.66
-290.36
-310.30
-317.91
-316.71
-310.94
-303.89
-296.92
-289.72
-281.54
-272.69
-265.14
-261.59
-263.39
-268.81
-272.62
-267.71
-248.16
-211.85
-160.89
-100.26
-35.06
31.20
96.04
156.17
206.04
238.79
249.35
237.51
208.59
170.80
131.10
92.55
55.02
18.49
-13.53
-33.28
-31.71
-3.41
49.71
118.07
187.67
244.90
280.39
290.50
276.72
243.59
196.92
142.58
85.91
31.46
-16.89
-56.10
-84.24
-100.99
-108.05
-108.80
-107.31
-106.79
-108.28
-110.51
-110.87
-107.13
-98.92
-88.19
-78.14
-71.51
-68.95
-68.40
-65.90
-57.18
-39.56
-12.95
19.78
53.37
81.32
97.69
98.95
85.46
61.73
35.18
13.61
2.42
2.87
11.92
23.95
33.14
35.66
30.46
18.86
3.30
-13.66
-29.99
-44.25
-55.47
-63.14
-67.27
-68.37
-67.36
-65.34
-63.27
-61.86
-61.37
-61.73
-62.71
-63.94
-64.97
-65.45
-65.11
-63.64
-60.51
-54.85
-45.55
-31.61
-12.68
10.67
36.98
64.30
90.93
115.84
138.64
158.92
175.44
185.59
185.66
172.15
143.53
101.69
52.08
2.28
-40.48
-71.63
-90.53
-99.85
-103.56
-104.58
-103.10
-96.33
-79.84
-50.01
-6.67
45.26
96.10
134.12
149.45
137.92
102.69
52.83
-0.47
-48.20
-85.96
-113.83
-134.10
-148.78
-158.23
-161.67
-158.63
-150.16
-138.89
-128.13
-120.50
-117.00
-117.07
-119.22
-122.15
-125.27
-128.76
-133.04
-138.31
-144.10
-149.46
-153.23
-154.28
-151.53
-143.87
-129.92
-108.34
-78.28
-39.99
4.94
53.71
102.86
148.90
188.89
220.64
242.90
255.46
259.25
256.32
249.45
241.55
235.01
231.13
229.91
230.28
230.64
229.69
227.19
224.31
223.23
226.17
233.89
244.64
254.09
256.53
246.84
222.28
183.37
133.55
78.11
22.74
-27.49
-68.71
-98.52
-116.14
-122.43
-119.61
-110.67
-98.50
-85.17
-71.77
-58.97
-47.83
-40.22
-38.43
-44.14
-57.12
-74.84
-93.08
-107.54
-115.44
-116.49
-112.52
-106.19
-99.53
-93.19
-86.72
-79.51
-71.59
-63.86
-57.53
-53.34
-51.14
-49.96
-48.60
-46.20
-42.66
-38.64
-35.22
-33.38
-33.60
-35.57
-38.35
-40.70
-41.61
-40.76
-38.54
-35.86
-33.74
-32.81
-33.21
-34.50
-36.02
-37.04
-37.09
-36.01
-34.04
-31.70
-29.61
-28.25
-27.69
-27.66
-27.65
-27.23
-26.22
-24.73
-22.94
-20.97
-18.76
-16.11
-12.86
-9.04
-4.89
-0.74
3.20
6.87
10.37
13.79
17.04
19.89
21.99
23.12
23.27
22.64
21.58
20.41
19.34
18.45
17.70
17.02
16.31
15.44
14.28
12.79
11.14
9.78
9.25
9.98
12.00
14.89
17.96
20.52
22.22
23.12
23.57
23.91
24.30
24.68
24.87
24.77
24.43
24.00
23.63
23.30
22.87
22.22
21.35
20.47
19.87
19.68
19.67
19.25
17.74
14.72
10.34
5.30
0.57
-3.03
-5.18
-6.09
-6.28
-6.29
-6.41
-6.64
-6.84
-6.86
-6.71
-6.52
-6.47
-6.60
-6.84
-6.99
-6.84
-6.28
-5.43
-4.53
-3.91
-3.80
-4.19
-4.87
-5.53
-5.92
-5.96
-5.77
-5.50
-5.29
-5.11
-4.81
-4.24
-3.29
-2.04
-0.72
0.45
1.27
1.70
1.84
1.82
1.78
1.73
1.63
1.43
1.11
0.77
0.54
0.64
1.21
2.32
3.90
5.75
7.60
9.14
10.11
10.40
10.01
9.10
7.90
6.65
5.56
4.76
4.25
3.94
3.65
3.19
2.44
1.35
-0.00
-1.51
-3.02
-4.41
-5.63
-6.69
-7.65
-8.56
-9.45
-10.22
-10.68
-10.66
-10.06
-8.99
-7.70
-6.51
-5.67
-5.25
-5.15
-5.17
-5.14
-4.98
-4.68
-4.27
-3.77
-3.21
-2.61
-2.04
-1.56
-1.19
-0.95
-0.83
-0.83
-1.00
-1.38
-1.93
-2.53
-2.91
-2.80
-2.01
-0.55
1.32
3.17
4.57
5.28
5.30
4.86
4.28
3.78
3.38
2.94
2.34
1.57
0.78
0.22
0.02
0.17
0.50
0.82
1.02
1.13
1.14
0.97
0.43
-0.62
-2.08
-3.56
-4.53
-4.63
-3.92
-2.88
-2.14
-2.14
-2.88
-3.98
-4.90
-5.33
-5.27
-5.02
-4.91
-5.05
-5.24
-5.09
-4.25
-2.59
-0.32
2.07
4.01
5.06
5.09
4.29
3.05
1.82
0.86
0.22
-0.23
-0.69
-1.23
-1.82
-2.31
-2.57
-2.54
-2.33
-2.08
-1.94
-1.94
-2.00
-1.99
-1.79
-1.37
-0.80
-0.22
0.23
0.47
0.46
0.22
-0.17
-0.59
-0.92
-1.05
-0.92
-0.54
-0.02
0.50
0.87
1.00
0.86
0.49
-0.00
-0.51
-0.94
-1.20
-1.26
-1.11
-0.78
-0.37
-0.02
0.13
0.02
-0.35
-0.83
-1.24
-1.43
-1.33
-0.97
-0.48
-0.02
0.30
0.42
0.32
0.04
-0.35
-0.76
-1.08
-1.19
-1.06
-0.74
-0.37
-0.08
0.06
0.06
-0.01
-0.08
-0.12
-0.14
-0.16
-0.16
-0.13
-0.06
0.01
0.02
-0.06
-0.22
-0.34
-0.35
-0.21
0.03
0.25
0.36
0.35
0.28
0.21
0.20
0.22
0.20
0.10
-0.08
-0.30
-0.52
-0.72
-0.94
-1.18
-1.46
-1.72
-1.92
-2.05
-2.14
-2.27
-2.56
-3.06
-3.80
-4.68
-5.59
-6.41
-7.06
-7.52
-7.86
-8.14
-8.46
-8.90
-9.54
-10.47
-11.71
-13.25
-14.94
-16.55
-17.83
-18.56
-18.66
-18.20
-17.33
-16.28
-15.21
-14.28
-13.53
-12.94
-12.44
-11.91
-11.26
-10.37
-9.25
-7.94
-6.60
-5.41
-4.58
-4.20
-4.20
-4.31
-4.12
-3.28
-1.65
0.58
2.90
4.74
5.68
5.62
4.75
3.53
2.52
2.33
3.45
6.13
10.21
15.10
19.91
23.71
25.88
26.31
25.41
23.80
22.04
20.44
19.00
17.61
16.24
14.93
13.79
12.94
12.45
12.37
12.76
13.66
15.06
16.86
18.84
20.73
22.33
23.50
24.22
24.54
24.61
24.66
24.95
25.81
27.48
30.05
33.34
36.87
39.84
41.25
40.19
36.06
28.88
19.42
9.02
-0.85
-9.00
-14.96
-19.00
-21.86
-24.35
-26.97
-29.82
-32.76
-35.54
-38.06
-40.32
-42.34
-44.12
-45.54
-46.52
-47.03
-47.12
-46.85
-46.19
-44.94
-42.76
-39.33
-34.47
-28.32
-21.32
-14.12
-7.39
-1.66
2.81
6.03
8.26
9.80
11.01
12.11
13.20
14.27
15.19
15.84
16.14
16.03
15.52
14.65
13.51
12.21
10.87
9.62
8.54
7.63
6.84
6.06
5.21
4.27
3.30
2.33
1.43
0.60
-0.15
-0.83
-1.42
-1.90
-2.27
-2.53
-2.67
-2.71
-2.61
-2.39
-2.09
-1.79
-1.52
-1.26
-0.92
-0.35
0.53
1.69
3.01
4.31
5.47
6.40
7.11
7.58
7.76
7.58
7.05
6.23
5.30
4.48
3.97
3.81
3.94
4.17
4.29
4.12
3.62
2.85
1.99
1.22
0.71
0.49
0.56
0.80
1.13
1.45
1.72
1.91
2.00
1.98
1.89
1.78
1.73
1.82
2.05
2.41
2.81
3.15
3.37
3.49
3.55
3.62
3.71
3.77
3.73
3.51
3.05
2.35
1.41
0.30
-0.90
-2.01
-2.87
-3.34
-3.37
-3.05
-2.54
-1.96
-1.32
-0.50
0.67
2.23
4.09
5.94
7.48
8.52
9.15
9.64
10.35
11.56
13.34
15.53
17.86
20.01
21.73
22.90
23.53
23.82
24.12
24.95
26.81
29.94
34.11
38.48
41.77
42.63
40.09
33.86
24.41
12.74
0.12
-12.23
-23.26
-32.17
-38.48
-42.05
-43.12
-42.30
-40.33
-37.97
-35.77
-33.96
-32.54
-31.32
-30.09
-28.63
-26.88
-24.85
-22.72
-20.73
-19.07
-17.80
-16.86
-16.01
-15.01
-13.69
-12.04
-10.19
-8.39
-6.85
-5.74
-5.11
-4.91
-5.00
-5.21
-5.32
-5.17
-4.60
-3.59
-2.20
-0.65
0.77
1.71
1.90
1.26
-0.08
-1.78
-3.38
-4.38
-4.45
-3.51
-1.81
0.14
1.78
2.69
2.75
2.21
1.55
1.39
2.23
4.27
7.33
10.83
14.04
16.31
17.36
17.37
16.80
16.13
15.57
15.03
14.26
13.14
11.83
10.68
9.99
9.76
9.63
9.16
8.09
6.50
4.76
3.29
2.36
1.95
1.90
1.95
1.91
1.70
1.30
0.76
0.13
-0.53
-1.18
-1.82
-2.47
-3.10
-3.64
-4.00
-4.11
-4.01
-3.85
-3.78
-3.92
-4.24
-4.60
-4.82
-4.76
-4.41
-3.85
-3.24
-2.71
-2.33
-2.09
-1.96
-1.92
-1.97
-2.14
-2.45
-2.87
-3.31
-3.68
-3.90
-3.95
-3.89
-3.77
-3.64
-3.53
-3.42
-3.27
-3.09
-2.87
-2.65
-2.44
-2.26
-2.08
-1.91
-1.78
-1.72
-1.78
-1.95
-2.16
-2.30
-2.25
-1.97
-1.52
-1.03
-0.67
-0.56
-0.68
-0.97
-1.30
-1.58
-1.79
-1.98
-2.16
-2.36
-2.59
-2.86
-3.17
-3.49
-3.77
-3.88
-3.71
-3.16
-2.22
-0.94
0.53
1.96
3.12
3.83
4.05
3.88
3.54
3.23
3.08
3.05
3.01
2.83
2.46
2.03
1.72
1.64
1.77
1.95
2.02
1.89
1.60
1.29
1.07
0.93
0.81
0.64
0.41
0.24
0.24
0.51
0.97
1.46
1.83
1.94
1.81
1.49
1.07
0.59
0.09
-0.36
-0.73
-0.94
-0.95
-0.80
-0.56
-0.36
-0.30
-0.42
-0.66
-0.93
-1.12
-1.18
-1.16
-1.13
-1.17
-1.29
-1.41
-1.43
-1.29
-1.03
-0.75
-0.56
-0.51
-0.55
-0.59
-0.57
-0.46
-0.32
-0.21
-0.14
-0.11
-0.08
-0.04
-0.01
-0.02
-0.08
-0.17
-0.25
-0.29
-0.27
-0.25
-0.25
-0.27
-0.29
-0.27
-0.18
-0.06
0.05
0.14
0.19
0.24
0.29
0.34
0.33
0.23
0.04
-0.19
-0.37
-0.44
-0.38
-0.24
-0.09
-0.02
-0.07
-0.24
-0.49
-0.75
-0.93
-1.00
-0.96
-0.89
-0.86
-0.88
-0.90
-0.79
-0.44
0.16
0.88
1.47
1.73
1.56
1.06
0.46
-0.03
-0.29
-0.34
-0.30
-0.28
-0.33
-0.40
-0.44
-0.41
-0.31
-0.18
-0.03
0.15
0.38
0.66
0.92
1.08
1.07
0.89
0.57
0.22
-0.08
-0.27
-0.33
-0.28
-0.13
0.10
0.37
0.59
0.70
0.63
0.40
0.07
-0.25
-0.46
-0.52
-0.43
-0.25
-0.06
0.10
0.19
0.23
0.25
0.25
0.23
0.15
-0.00
-0.20
-0.39
-0.46
-0.34
0.00
0.49
1.00
1.36
1.42
1.15
0.60
-0.10
-0.75
-1.19
