1682194865.00
64.000000
-0.00
-0.00
-0.00
-0.00
-0.00
-0.00
-0.00
-0.00
-0.00
-0.00
0.00
0.01
0.01
-0.00
-0.03
-0.05
-0.05
0.00
0.13
0.36
0.66
1.01
1.38
1.72
2.06
2.40
2.78
3.23
3.80
4.46
5.15
5.81
6.38
6.84
7.23
7.66
8.21
9.06
10.17
11.45
12.76
13.97
15.03
16.05
17.23
18.79
21.05
23.91
27.12
30.35
33.30
35.91
38.41
41.28
44.99
50.14
56.58
63.83
71.16
77.89
83.76
89.06
94.59
101.27
110.22
121.41
134.18
147.31
159.52
170.04
179.00
187.89
196.16
207.25
222.73
243.06
266.46
288.74
304.10
306.93
293.96
265.45
225.56
179.76
133.12
88.42
45.61
2.83
-42.07
-90.08
-140.39
-190.05
-235.18
-271.26
-294.20
-301.51
-293.47
-274.00
-250.03
-229.68
-219.42
-222.07
-235.56
-254.06
-270.63
-279.89
-279.76
-271.18
-256.77
-238.92
-219.15
-198.11
-176.46
-155.53
-137.09
-122.47
-111.68
-103.31
-95.15
-85.31
-73.14
-59.42
-45.92
-34.52
-26.34
-21.35
-18.54
-16.40
-13.59
-9.44
-4.13
1.51
6.46
9.95
11.82
12.49
12.74
13.30
14.58
16.51
18.62
20.36
21.29
21.26
20.45
19.24
18.08
17.30
17.02
17.13
17.36
17.41
17.06
16.32
15.40
14.67
14.55
15.32
16.96
19.17
21.40
23.06
23.70
23.23
21.90
20.10
18.23
16.46
14.78
13.10
11.41
9.83
8.55
7.69
7.21
6.92
6.60
6.12
5.54
4.99
4.60
4.40
4.29
4.13
3.83
3.39
2.84
2.20
1.44
0.45
-0.87
-2.52
-4.38
-6.21
-7.76
-8.78
-9.13
-8.76
-7.69
-6.10
-4.23
-2.37
-0.76
0.49
1.48
2.48
3.79
5.55
7.62
9.65
11.18
11.93
11.86
11.21
10.34
9.57
9.09
8.92
8.97
9.11
9.23
9.23
9.06
8.63
7.89
6.82
5.42
3.78
1.99
0.18
-1.54
-3.06
-4.32
-5.26
-5.90
-6.25
-6.39
-6.43
-6.44
-6.47
-6.46
-6.33
-5.99
-5.37
-4.50
-3.49
-2.50
-1.66
-1.08
-0.73
-0.48
-0.16
0.40
1.27
2.36
3.51
4.51
5.27
5.73
5.95
5.95
5.68
5.06
4.05
2.70
1.21
-0.21
-1.36
-2.22
-2.90
-3.60
-4.48
-5.60
-6.81
-7.89
-8.60
-8.80
-8.50
-7.89
-7.18
-6.60
-6.26
-6.18
-6.34
-6.72
-7.29
-7.94
-8.47
-8.61
-8.16
-7.18
-5.95
-4.90
-4.37
-4.37
-4.57
-4.46
-3.71
-2.44
-1.25
-1.03
-2.52
-5.89
-10.62
-15.64
-19.79
-22.43
-23.75
-24.79
-26.97
-31.40
-38.27
-46.53
-54.36
-59.87
-62.07
-61.27
-58.79
-56.31
-55.22
-56.31
-59.82
-65.45
-71.88
-76.36
-74.65
-62.25
-36.49
1.51
46.35
89.95
124.65
146.22
154.93
154.44
148.98
140.98
130.38
115.88
96.98
75.29
54.32
37.81
27.90
24.29
24.58
25.76
25.69
23.85
21.20
19.20
18.83
20.08
22.03
23.52
23.96
23.53
23.00
23.07
23.70
23.87
21.96
16.57
7.39
-4.49
-16.92
-27.53
-34.71
-38.12
-38.47
-37.00
-34.73
-32.21
-29.58
-26.97
-24.75
-23.57
-23.97
-26.05
-29.16
-32.10
-33.60
-32.98
-30.48
-27.30
-25.09
-25.17
-27.93
-32.61
-37.56
-41.02
-41.90
-40.27
-37.34
-34.99
-35.09
-38.82
-46.33
-56.42
-66.47
-72.72
-71.03
-58.09
-32.84
2.39
41.92
78.01
103.41
113.84
109.39
94.19
74.40
55.71
41.46
32.22
26.75
23.42
21.31
20.32
20.65
22.05
23.51
23.72
21.78
17.81
13.02
9.04
7.11
7.60
9.72
12.01
13.04
12.06
9.31
5.81
2.84
1.32
1.43
2.62
3.94
4.56
4.11
2.77
1.09
-0.31
-1.03
-1.05
-0.62
-0.14
0.05
-0.20
-0.83
-1.61
-2.24
-2.53
-2.43
-2.06
-1.62
-1.27
-1.07
-0.96
-0.85
-0.70
-0.51
-0.37
-0.35
-0.47
-0.69
-0.93
-1.11
-1.17
-1.12
-0.98
-0.79
-0.57
-0.36
-0.18
-0.05
-0.01
-0.06
-0.18
-0.33
-0.44
-0.48
-0.44
-0.35
-0.23
-0.10
0.01
0.10
0.15
0.15
0.08
-0.04
-0.14
-0.20
-0.19
-0.15
-0.10
-0.06
-0.01
0.09
0.25
0.43
0.54
0.50
0.32
0.07
-0.13
-0.19
-0.07
0.18
0.48
0.76
0.95
1.03
0.98
0.80
0.52
0.20
-0.09
-0.27
-0.32
-0.26
-0.13
-0.00
0.09
0.16
0.22
0.27
0.30
0.24
0.08
-0.13
-0.30
-0.31
-0.12
0.22
0.60
0.88
1.01
0.99
0.87
0.74
0.64
0.58
0.55
0.54
0.57
0.62
0.68
0.69
0.63
0.49
0.30
0.06
-0.22
-0.55
-0.90
-1.22
-1.44
-1.49
-1.39
-1.23
-1.13
-1.15
-1.25
-1.33
-1.26
-0.98
-0.55
-0.09
0.24
0.40
0.44
0.47
0.57
0.74
0.91
0.97
0.90
0.74
0.57
0.48
0.49
0.56
0.65
0.66
0.58
0.38
0.09
-0.24
-0.55
-0.76
-0.82
-0.71
-0.50
-0.29
-0.14
-0.10
-0.14
-0.21
-0.24
-0.20
-0.07
0.17
0.51
0.92
1.35
1.75
2.05
2.19
2.19
2.06
1.90
1.81
1.85
1.99
2.12
2.10
1.83
1.32
0.68
0.07
-0.41
-0.74
-0.96
-1.12
-1.26
-1.34
-1.35
-1.29
-1.25
-1.27
-1.35
-1.40
-1.31
-0.97
-0.39
0.28
0.88
1.28
1.45
1.47
1.49
1.57
1.71
1.81
1.77
1.52
1.16
0.82
0.68
0.85
1.32
1.96
2.60
3.08
3.32
3.37
3.40
3.65
4.37
5.65
7.34
9.11
10.48
11.09
10.92
10.33
10.02
10.69
12.73
16.00
19.78
23.10
25.16
25.72
25.30
24.99
25.96
28.91
33.68
39.26
44.24
47.45
48.52
48.00
47.16
47.46
50.07
55.69
64.36
75.11
85.54
91.78
89.40
75.06
48.41
13.00
-24.57
-56.99
-79.05
-89.39
-90.30
-85.94
-80.02
-74.37
-69.03
-63.34
-57.17
-51.32
-47.03
-45.03
-44.96
-45.52
-45.06
-42.54
-37.95
-32.34
-27.28
-24.02
-22.99
-23.65
-24.77
-25.10
-23.90
-21.20
-17.71
-14.40
-12.05
-10.99
-10.97
-11.43
-11.74
-11.45
-10.47
-9.02
-7.52
-6.41
-5.95
-6.17
-6.84
-7.59
-8.08
-8.13
-7.79
-7.25
-6.77
-6.53
-6.60
-6.95
-7.43
-7.90
-8.19
-8.19
-7.87
-7.29
-6.57
-5.86
-5.28
-4.91
-4.78
-4.78
-4.61
-3.74
-1.59
2.27
7.77
14.24
20.61
25.83
29.32
31.17
31.93
32.24
32.40
32.40
32.11
31.59
31.25
31.63
33.08
35.55
38.69
42.13
45.63
49.04
52.08
54.12
54.35
52.14
47.39
40.62
32.59
23.90
14.79
5.34
-4.17
-12.91
-19.69
-23.49
-24.06
-22.19
-19.36
-17.02
-15.99
-16.26
-17.43
-19.24
-21.88
-25.85
-31.47
-38.39
-45.52
-51.43
-54.95
-55.69
-54.16
-51.42
-48.49
-45.89
-43.52
-40.95
-37.77
-33.99
-30.00
-26.41
-23.74
-22.24
-21.81
-22.10
-22.41
-21.84
-19.36
-14.12
-5.82
4.97
16.85
28.02
36.94
42.89
46.16
47.69
48.44
48.92
49.08
48.61
47.34
45.55
43.79
42.59
42.13
42.14
41.94
40.60
37.27
31.46
23.29
13.54
3.50
-5.45
-12.36
-16.98
-19.78
-21.53
-22.84
-23.87
-24.41
-24.17
-23.16
-21.80
-20.70
-20.38
-20.92
-22.01
-23.12
-23.77
-23.72
-23.02
-21.95
-20.76
-19.63
-18.58
-17.51
-16.37
-15.18
-14.08
-13.23
-12.68
-12.35
-12.03
-11.49
-10.65
-9.60
-8.51
-7.53
-6.70
-5.96
-5.19
-4.37
-3.53
-2.78
-2.21
-1.81
-1.54
-1.32
-1.13
-1.03
-1.10
-1.39
-1.83
-2.27
-2.46
-2.24
-1.54
-0.49
0.66
1.58
1.99
1.74
0.79
-0.66
-2.24
-3.31
-3.06
-0.82
3.53
9.33
15.11
19.17
20.30
18.34
14.31
9.87
6.52
4.93
4.71
4.88
4.43
2.91
0.55
-2.04
-4.27
-5.85
-6.71
-6.73
-5.67
-3.28
0.39
4.72
8.58
10.81
10.74
8.53
5.10
1.64
-1.01
-2.62
-3.46
-3.95
-4.28
-4.36
-4.08
-3.58
-3.26
-3.62
-4.92
-6.93
-9.13
-10.90
-11.73
-11.25
-9.17
-5.33
0.05
6.20
11.81
15.43
16.16
14.13
10.43
6.61
3.83
2.38
1.72
1.06
-0.01
-1.20
-1.90
-1.67
-0.68
0.32
0.49
-0.62
-2.80
-5.33
-7.23
-7.66
-6.10
-2.54
2.48
7.83
12.10
13.99
12.96
9.46
4.84
0.71
-1.79
-2.55
-2.28
-2.05
-2.49
-3.57
-4.74
-5.46
-5.61
-5.58
-5.88
-6.79
-8.18
-9.60
-10.45
-10.18
-8.31
-4.58
0.91
7.49
13.91
18.73
20.87
20.13
17.31
13.74
10.66
8.66
7.53
6.70
5.67
4.30
2.76
1.24
-0.28
-1.99
-4.09
-6.57
-9.18
-11.40
-12.50
-11.69
-8.49
-3.06
3.51
9.41
12.73
12.33
8.47
2.73
-2.72
-6.14
-6.99
-5.93
-4.23
-2.95
-2.47
-2.55
-2.72
-2.75
-2.79
-3.13
-3.89
-4.89
-5.71
-5.89
-5.24
-3.93
-2.43
-1.24
-0.72
-0.93
-1.68
-2.63
-3.47
-4.02
-4.30
-4.42
-4.59
-4.93
-5.51
-6.29
-7.13
-7.87
-8.37
-8.60
-8.67
-8.80
-9.24
-10.13
-11.42
-12.92
-14.31
-15.39
-16.12
-16.67
-17.29
-18.22
-19.54
-21.16
-22.89
-24.51
-25.94
-27.24
-28.64
-30.42
-32.86
-36.14
-40.29
-45.22
-50.72
-56.52
-62.33
-67.87
-72.90
-77.23
-80.81
-83.85
-86.76
-90.22
-94.83
-100.84
-107.89
-115.01
-120.92
-124.54
-125.47
-124.12
-121.62
-119.41
-118.75
-120.36
-123.96
-128.11
-130.24
-127.09
-115.41
-92.84
-58.60
-13.95
37.73
91.41
141.34
182.20
210.41
224.86
227.08
220.49
209.14
196.42
184.36
173.70
164.51
156.79
150.74
146.48
143.80
142.02
140.28
138.02
135.27
132.57
130.70
130.24
131.29
133.48
136.21
138.93
141.26
143.16
144.78
146.44
148.64
152.10
157.76
166.28
177.45
189.57
199.32
202.46
195.12
175.01
142.07
98.25
46.80
-8.42
-63.27
-113.48
-154.90
-184.20
-199.85
-202.81
-196.32
-184.79
-172.25
-161.18
-152.22
-144.85
-138.18
-131.69
-125.26
-118.99
-112.80
-106.42
-99.54
-92.04
-84.16
-76.41
-69.40
-63.54
-58.85
-54.98
-51.25
-47.01
-41.85
-35.73
-29.07
-22.44
-16.41
-11.26
-6.96
-3.29
0.02
3.02
5.59
7.45
8.44
8.58
8.16
7.53
6.99
6.65
6.42
6.11
5.58
4.81
3.93
3.07
2.36
1.81
1.33
0.78
0.03
-0.92
-1.97
-2.91
-3.55
-3.80
-3.74
-3.61
-3.68
-4.12
-4.94
-5.97
-6.93
-7.63
-8.02
-8.26
-8.63
-9.43
-10.83
-12.77
-14.98
-17.08
-18.78
-19.99
-20.95
-22.12
-24.09
-27.19
-31.38
-36.12
-40.57
-43.96
-46.03
-47.18
-48.44
-50.98
-55.58
-62.17
-69.85
-77.25
-83.18
-87.13
-89.55
-91.64
-95.04
-101.32
-111.48
-125.29
-140.90
-154.68
-161.75
-157.13
-137.43
-102.27
-55.01
-2.04
49.01
91.56
121.89
139.76
147.58
148.85
146.64
142.70
137.63
131.58
124.92
118.50
113.21
109.44
106.60
103.44
98.69
91.81
83.34
74.63
67.22
62.04
59.06
57.35
55.66
53.03
49.29
45.00
41.12
38.48
37.27
37.05
36.88
35.74
32.93
28.18
21.70
14.05
6.01
-1.64
-8.19
-13.19
-16.51
-18.32
-19.06
-19.16
-18.97
-18.59
-17.99
-17.12
-16.03
-14.92
-13.98
-13.34
-12.94
-12.59
-12.04
-11.16
-9.99
-8.67
-7.43
-6.40
-5.60
-4.99
-4.49
-4.08
-3.78
-3.58
-3.44
-3.27
-2.99
-2.57
-2.04
-1.52
-1.08
-0.79
-0.63
-0.54
-0.49
-0.45
-0.43
-0.40
-0.37
-0.33
-0.30
-0.33
-0.43
-0.57
-0.66
-0.60
-0.33
0.11
0.57
0.91
1.03
0.93
0.70
0.44
0.19
-0.04
-0.29
-0.55
-0.77
-0.91
-0.95
-0.94
-1.00
-1.22
-1.63
-2.12
-2.55
-2.79
-2.79
-2.59
-2.26
-1.87
-1.45
-1.00
-0.54
-0.14
0.15
0.32
0.43
0.61
0.97
1.61
2.52
3.59
4.63
5.45
5.87
5.82
5.39
4.77
4.28
4.16
4.51
5.22
5.99
6.52
6.64
6.41
6.09
6.03
6.49
7.53
8.98
10.53
11.86
12.81
13.44
14.07
15.10
16.85
19.47
22.82
26.59
30.42
33.90
36.61
38.17
38.59
38.67
40.31
46.11
58.54
78.80
106.15
137.88
170.01
198.18
218.46
227.73
223.80
205.43
172.59
126.83
71.68
12.46
-44.48
-93.07
-128.88
-150.11
-157.83
-155.35
-147.00
-136.69
-127.00
-118.87
-112.08
-106.08
-100.54
-95.46
-90.96
-86.91
-82.88
-78.36
-73.06
-67.12
-61.05
-55.51
-50.99
-47.57
-44.92
-42.47
-39.65
-36.17
-32.09
-27.75
-23.60
-19.93
-16.79
-14.01
-11.25
-8.22
-4.77
-0.98
2.88
6.46
9.44
11.66
13.10
13.94
14.41
14.73
14.99
15.09
14.78
13.80
11.96
9.28
6.03
2.65
-0.37
-2.65
-4.01
-4.53
-4.42
-3.96
-3.36
-2.78
-2.32
-2.11
-2.26
-2.82
-3.74
-4.85
-5.89
-6.69
-7.12
-7.22
-7.08
-6.81
-6.47
-6.10
-5.68
-5.22
-4.75
-4.28
-3.84
-3.45
-3.12
-2.86
-2.72
-2.72
-2.85
-3.07
-3.25
-3.28
-3.03
-2.50
-1.77
-1.00
-0.40
-0.10
-0.11
-0.33
-0.59
-0.72
-0.65
-0.35
0.08
0.57
1.03
1.43
1.77
2.02
2.18
2.21
2.09
1.85
1.56
1.29
1.09
0.96
0.82
0.59
0.23
-0.26
-0.81
-1.34
-1.77
-2.07
-2.27
-2.45
-2.70
-3.13
-3.84
-4.88
-6.25
-7.86
-9.56
-11.17
-12.56
-13.65
-14.52
-15.33
-16.33
-17.76
-19.71
-22.14
-24.81
-27.47
-29.92
-32.19
-34.51
-37.23
-40.64
-44.83
-49.59
-54.47
-58.92
-62.45
-64.83
-66.19
-66.99
-67.83
-69.18
-71.11
-73.29
-75.16
-76.31
-76.83
-77.31
-78.67
-81.82
-87.28
-94.84
-103.46
-111.35
-116.12
-115.11
-105.86
-86.89
-58.27
-21.99
18.38
58.49
94.30
123.05
143.62
156.35
162.29
162.56
158.00
149.33
137.57
124.19
111.10
99.97
91.73
86.17
82.24
78.58
74.10
68.34
61.63
54.75
48.51
43.40
39.37
35.98
32.60
28.78
24.50
20.17
16.45
13.79
12.23
11.31
10.40
9.03
7.18
5.22
3.63
2.69
2.34
2.26
2.09
1.59
0.76
-0.21
-1.06
-1.61
-1.78
-1.61
-1.24
-0.81
-0.42
-0.11
0.11
0.26
0.36
0.41
0.44
0.47
0.53
0.61
0.65
0.63
0.54
0.40
0.30
0.32
0.50
0.78
1.03
1.14
1.08
0.91
0.76
0.72
0.80
0.94
1.03
1.02
0.93
0.84
0.80
0.81
0.85
0.88
0.93
1.08
1.41
1.93
2.58
3.26
3.87
4.38
4.88
5.48
6.28
7.27
8.36
9.44
10.44
11.42
12.54
13.94
15.67
17.65
19.68
21.62
23.46
25.35
27.52
30.17
33.32
36.85
40.54
44.21
47.79
51.41
55.29
59.69
64.75
70.54
76.85
83.43
89.91
95.99
101.57
106.95
112.86
120.36
130.30
142.78
156.52
168.74
175.65
173.42
159.25
132.10
92.90
44.34
-9.52
-63.70
-112.93
-152.49
-179.19
-192.22
-193.23
-185.74
-173.82
-160.76
-148.38
-137.04
-126.36
-115.82
-105.30
-94.91
-84.87
-75.36
-66.52
-58.58
-51.91
-46.86
-43.65
-42.11
-41.70
-41.69
-41.35
-40.23
-38.23
-35.56
-32.58
-29.70
-27.21
-25.23
-23.69
-22.39
-21.03
-19.39
-17.36
-15.01
-12.56
-10.32
-8.51
-7.27
-6.53
-6.13
-5.90
-5.74
-5.62
-5.61
-5.75
-6.04
-6.45
-6.94
-7.47
-8.06
-8.74
-9.49
-10.20
-10.71
-10.88
-10.77
-10.64
-10.91
-11.93
-13.79
-16.19
-18.56
-20.36
-21.39
-22.00
-22.91
-24.90
-28.37
-33.13
-38.40
-43.14
-46.54
-48.35
-48.90
-49.00
-49.49
-50.95
-53.57
-57.25
-61.54
-65.53
-67.66
-65.96
-58.74
-45.53
-27.78
-8.65
8.26
20.68
29.03
36.25
46.27
61.87
83.10
107.22
130.13
148.41
160.55
167.13
169.88
170.39
169.42
166.88
162.34
155.34
145.43
131.82
113.30
88.92
58.86
25.24
-8.01
-36.40
-56.46
-67.03
-69.50
-66.86
-62.19
-57.47
-53.26
-49.17
-44.64
-39.54
-34.20
-29.01
-24.16
-19.52
-14.86
-10.11
-5.43
-1.29
1.89
3.96
5.31
6.65
8.54
10.83
12.35
11.22
5.82
-4.27
-17.77
-32.11
-44.45
-52.93
-57.23
-58.27
-57.39
-55.59
-53.21
-50.19
-46.55
-42.62
-38.98
-36.11
-34.14
-32.82
-31.68
-30.20
-27.95
-24.80
-21.00
-17.20
-14.30
-13.09
-13.87
-16.13
-18.81
-20.75
-21.33
-20.84
-20.31
-21.02
-23.75
-28.38
-33.85
-38.62
-41.33
-41.38
-39.22
-36.14
-33.76
-33.52
-36.18
-41.59
-48.48
-54.28
-55.48
-48.49
-31.02
-3.36
31.29
67.67
100.45
126.05
143.78
155.42
163.86
171.55
179.36
186.15
189.12
184.58
169.19
141.51
103.26
59.64
18.08
-14.21
-32.82
-37.48
-31.41
-19.42
-6.01
5.45
12.48
12.95
5.13
-11.34
-34.48
-59.87
-81.93
-95.97
-99.83
-94.42
-82.82
-68.90
-55.87
-45.64
-38.81
-34.89
-32.78
-31.17
-29.00
-25.78
-21.76
-17.65
-14.17
-11.69
-10.11
-9.06
-8.23
-7.47
-6.80
-6.21
-5.48
-4.24
-2.10
1.05
4.98
9.14
12.85
15.54
16.84
16.67
15.17
12.61
9.36
5.79
2.26
-0.92
-3.48
-5.25
-6.18
-6.36
-6.04
-5.58
-5.39
-5.73
-6.63
-7.81
-8.83
-9.30
-9.14
-8.68
-8.54
-9.29
-11.13
-13.68
-16.09
-17.46
-17.30
-15.95
-14.48
-14.31
-16.51
-21.20
-27.36
-33.17
-36.95
-37.89
-36.49
-34.39
-33.48
-34.92
-38.68
-43.74
-48.45
-50.96
-49.21
-40.97
-24.27
1.49
34.05
67.64
94.08
105.52
97.78
72.43
36.26
-1.56
-33.27
-55.16
-67.77
-74.17
-77.37
-78.81
-78.47
-76.24
-73.25
-71.88
-74.57
-81.81
-90.74
-95.67
-90.01
-68.76
-30.43
22.57
85.10
151.14
215.25
273.05
320.88
355.27
373.03
371.91
351.52
313.71
262.21
201.80
137.51
74.15
16.21
-32.48
-69.28
-93.28
-105.70
-109.41
-107.92
-104.19
-99.86
-95.23
-89.98
-83.92
-77.39
-71.19
-66.12
-62.54
-60.27
-58.73
-57.16
-54.94
-51.77
-47.80
-43.52
-39.59
-36.52
-34.39
-32.82
-31.10
-28.61
-25.12
-20.95
-16.76
-13.19
-10.58
-8.91
-7.95
-7.47
-7.40
-7.73
-8.40
-9.17
-9.68
-9.61
-8.82
-7.46
-5.83
-4.31
-3.17
-2.55
-2.46
-2.79
-3.33
-3.84
-4.12
-4.05
-3.67
-3.12
-2.55
-2.02
-1.48
-0.89
-0.19
0.54
1.22
1.75
2.13
2.45
2.81
3.31
3.97
4.76
5.61
6.40
6.98
7.16
6.77
5.73
4.09
2.09
0.08
-1.60
-2.69
-3.15
-3.04
-2.59
-2.01
-1.49
-1.07
-0.71
-0.30
0.27
0.98
1.68
2.17
2.29
2.00
1.41
0.73
0.13
-0.36
-0.78
-1.23
-1.74
-2.22
-2.54
-2.59
-2.40
-2.08
-1.81
-1.74
-1.90
-2.18
-2.43
-2.48
-2.27
-1.89
-1.47
-1.15
-0.98
-0.94
-0.95
-0.97
-0.98
-1.02
-1.11
-1.22
-1.28
-1.21
-1.00
-0.68
-0.33
-0.02
0.23
0.41
0.54
0.58
0.49
0.25
-0.09
-0.42
-0.58
-0.47
-0.07
0.53
1.11
1.45
1.44
1.11
0.62
0.18
-0.03
0.03
0.32
0.72
1.12
1.48
1.80
2.07
2.27
2.32
2.10
1.56
0.72
-0.30
-1.34
-2.24
-2.94
-3.44
-3.82
-4.19
-4.62
-5.14
-5.71
-6.24
-6.68
-7.02
-7.32
-7.71
-8.30
-9.14
-10.18
-11.27
-12.25
-13.00
-13.56
-14.07
-14.75
-15.79
-17.32
-19.31
-21.65
-24.14
-26.62
-28.99
-31.27
-33.58
-36.08
-38.84
-41.89
-45.19
-48.67
-52.26
-55.88
-59.46
-63.02
-66.74
-70.91
-75.90
-81.89
-88.78
-96.17
-103.53
-110.34
-116.33
-121.55
-126.56
-132.42
-140.38
-151.17
-164.14
-176.71
-184.66
-183.30
-169.05
-140.78
-100.09
-50.78
2.33
54.39
101.16
139.24
166.27
181.29
185.10
180.16
170.03
158.20
147.16
137.92
130.27
123.47
116.86
110.18
103.49
96.91
90.43
83.91
77.28
70.68
64.42
58.91
54.36
50.69
47.59
44.70
41.86
39.07
36.49
34.19
32.10
30.06
28.00
26.06
24.47
23.46
23.05
22.96
22.77
22.17
21.07
19.66
18.27
17.15
16.34
15.73
15.13
14.46
13.75
13.16
12.79
12.62
12.49
12.17
11.50
10.51
9.39
8.41
7.78
7.57
7.64
7.73
7.56
6.98
6.04
4.95
4.00
3.44
3.37
3.74
4.40
5.18
5.92
6.56
7.05
7.40
7.65
7.84
8.08
8.44
8.92
9.48
10.03
10.53
11.04
11.72
12.77
14.27
16.11
18.01
19.65
20.85
21.72
22.66
24.14
26.52
29.87
33.91
38.15
42.14
45.63
48.73
51.82
55.40
59.84
65.28
71.50
78.07
84.51
90.53
96.07
101.46
107.16
113.63
121.24
130.09
139.89
149.83
158.62
164.55
165.99
162.19
153.97
143.81
134.93
129.80
128.55
128.53
125.08
113.40
90.36
55.51
10.94
-39.53
-91.20
-139.33
-179.54
-208.45
-224.40
-227.94
-221.60
-209.00
-193.70
-178.22
-163.90
-151.37
-141.17
-133.99
-130.47
-130.79
-134.25
-139.26
-143.58
-145.04
-142.11
-134.48
-123.46
-111.47
-101.35
-95.31
-94.14
-96.71
-100.04
-99.83
-91.52
-72.00
-41.38
-4.46
29.87
51.28
51.95
30.13
-8.54
-52.94
-90.64
-112.33
-114.57
-99.69
-73.55
-42.88
-13.61
9.31
21.51
19.23
0.33
-34.48
-80.89
-131.75
-179.41
-218.19
-246.04
-264.19
-275.38
-281.55
-282.56
-276.52
-261.33
-236.30
-202.72
-163.22
-120.36
-75.51
-28.66
20.61
71.80
122.54
168.70
205.66
230.11
241.30
241.22
233.67
222.57
210.57
198.56
186.17
172.96
159.18
145.93
134.58
125.85
119.39
113.88
107.81
100.21
91.09
81.42
72.54
65.51
60.64
57.40
54.73
51.55
47.24
41.82
35.86
30.16
25.39
21.81
19.31
17.51
16.02
14.63
13.35
12.34
11.74
11.58
11.68
11.80
11.69
11.23
10.44
9.46
8.44
7.44
6.49
5.57
4.67
3.84
3.12
2.63
2.44
2.61
3.17
4.04
5.09
6.10
6.81
7.06
6.80
6.25
5.80
5.91
6.95
8.96
11.57
14.13
15.93
16.57
16.21
15.54
15.51
16.89
19.79
23.56
27.05
29.13
29.31
28.06
26.65
26.64
29.18
34.39
41.22
47.84
52.32
53.44
51.25
47.04
42.73
40.34
41.16
45.29
51.41
56.73
57.07
47.47
23.59
-16.09
-68.36
-125.00
-174.91
-208.09
-219.43
-210.26
-186.85
-156.90
-126.13
-96.98
-69.73
-44.64
-23.36
-8.54
-2.00
-3.14
-8.82
-14.80
-17.90
-17.33
-14.56
-12.00
-11.80
-14.79
-20.31
-26.56
-31.29
-32.66
-29.93
-23.68
-15.42
-6.86
0.99
8.08
15.06
22.59
30.65
38.44
44.80
48.85
50.42
50.13
48.97
47.81
47.08
46.78
46.72
46.81
47.03
47.45
48.09
48.86
49.56
50.03
50.27
50.55
51.32
53.03
55.88
59.66
63.83
67.79
71.16
74.02
76.87
80.41
85.22
91.57
99.20
107.44
115.41
122.33
127.83
132.29
136.95
143.55
153.38
166.22
179.61
189.05
189.36
176.41
148.69
107.78
57.81
4.25
-47.41
-92.52
-127.74
-151.11
-162.27
-162.41
-154.06
-140.45
-124.65
-108.71
-93.28
-78.20
-63.51
-50.42
-41.49
-39.71
-46.87
-62.25
-82.28
-101.77
-115.92
-122.18
-120.97
-114.80
-106.63
-98.37
-90.35
-82.05
-73.10
-64.03
-56.06
-50.32
-47.08
-45.58
-44.47
-42.44
-38.91
-34.22
-29.32
-25.31
-22.86
-22.01
-22.18
-22.47
-22.04
-20.46
-17.85
-14.76
-11.91
-9.87
-8.83
-8.54
-8.48
-8.13
-7.24
-5.87
-4.36
-3.04
-2.15
-1.72
-1.62
-1.63
-1.59
-1.41
-1.11
-0.77
-0.49
-0.35
-0.35
-0.46
-0.61
-0.74
-0.84
-0.94
-1.12
-1.39
-1.78
-2.25
-2.79
-3.35
-3.88
-4.32
-4.63
-4.78
-4.83
-4.89
-5.10
-5.53
-6.20
-7.04
-7.97
-8.89
-9.74
-10.51
-11.22
-11.94
-12.78
-13.86
-15.26
-17.01
-19.00
-21.12
-23.26
-25.40
-27.69
-30.30
-33.40
-37.02
-41.05
-45.33
-49.71
-54.13
-58.64
-63.33
-68.28
-73.48
-78.83
-84.20
-89.46
-94.67
-100.01
-105.79
-112.29
-119.64
-127.89
-137.18
-147.78
-159.92
-173.23
-186.22
-196.03
-199.01
-191.77
-172.35
-140.82
-99.05
-50.02
2.86
55.99
105.52
147.49
178.36
196.09
200.99
195.79
184.76
172.18
160.96
152.18
145.43
139.71
134.14
128.38
122.39
116.26
109.95
103.38
96.52
89.52
82.61
76.14
70.34
65.29
60.88
56.87
52.95
48.85
44.51
40.06
35.79
32.03
29.00
26.69
24.89
23.25
21.47
19.40
17.10
14.76
12.61
10.82
9.41
8.32
7.39
6.51
5.62
4.73
3.91
3.28
2.86
2.65
2.54
2.40
2.13
1.71
1.23
0.83
0.63
0.67
0.87
1.11
1.26
1.25
1.08
0.79
0.45
0.11
-0.15
-0.27
-0.21
-0.00
0.26
0.44
0.44
0.24
-0.10
-0.44
-0.69
-0.81
-0.86
-0.85
-0.81
-0.71
-0.53
-0.33
-0.15
-0.07
-0.08
-0.11
-0.06
0.15
0.46
0.81
1.08
1.22
1.28
1.32
1.41
1.57
1.77
1.94
2.06
2.12
2.18
2.25
2.37
2.54
2.78
3.11
3.58
4.17
4.82
5.41
5.82
6.04
6.17
6.43
7.01
7.94
9.08
10.12
10.80
11.06
11.06
11.11
11.50
12.31
13.35
14.31
14.83
14.66
13.62
11.55
8.30
3.85
-1.61
-7.50
-13.01
-17.27
-19.75
-20.41
-19.66
-18.21
-16.65
-15.30
-14.20
-13.22
-12.26
-11.31
-10.46
-9.72
-9.07
-8.35
-7.49
-6.49
-5.48
-4.67
-4.18
-4.00
-4.00
-3.97
-3.78
-3.38
-2.85
-2.32
-1.91
-1.67
-1.61
-1.66
-1.76
-1.83
-1.84
-1.79
-1.67
-1.49
-1.24
-0.92
-0.55
-0.18
0.12
0.31
0.36
0.30
0.21
0.12
0.08
0.08
0.16
0.31
0.53
0.76
0.89
0.83
0.55
0.12
-0.34
-0.67
-0.82
-0.78
-0.63
-0.43
-0.23
-0.05
0.06
0.06
-0.09
-0.39
-0.74
-1.01
-1.10
-1.05
-0.92
-0.86
-0.95
-1.18
-1.50
-1.78
-1.95
-1.95
-1.77
-1.43
-0.94
-0.30
0.42
1.15
1.80
2.26
2.51
2.55
2.46
2.31
2.14
1.96
1.74
1.47
1.19
0.98
0.93
1.04
1.29
1.59
1.90
2.22
2.61
3.15
3.85
4.69
5.59
6.47
7.32
8.23
9.49
11.55
14.92
19.98
26.76
34.84
43.48
51.87
59.45
66.17
72.36
78.50
84.87
91.37
97.59
103.16
108.03
112.60
117.51
123.35
130.27
138.08
146.48
155.45
165.27
175.96
186.62
194.99
197.69
191.26
173.43
143.89
104.19
56.93
5.03
-48.52
-100.41
-146.71
-183.28
-206.81
-216.16
-213.01
-201.36
-186.06
-171.03
-158.19
-147.62
-138.35
-129.51
-120.85
-112.73
-105.57
-99.40
-93.78
-87.99
-81.51
-74.22
-66.59
-59.37
-53.23
-48.40
-44.66
-41.39
-37.95
-33.93
-29.31
-24.41
-19.72
-15.68
-12.51
-10.14
-8.22
-6.34
-4.10
-1.37
1.71
4.78
7.44
9.42
10.68
11.44
12.04
12.87
14.29
16.54
19.63
23.20
26.39
27.99
26.76
21.89
13.49
2.56
-9.25
-20.22
-29.07
-35.28
-39.02
-40.90
-41.59
-41.63
-41.36
-40.96
-40.54
-40.14
-39.76
-39.26
-38.46
-37.16
-35.23
-32.80
-30.31
-28.45
-28.00
-29.51
-32.96
-37.76
-43.02
-47.92
-52.22
-56.28
-60.84
-66.50
-73.36
-80.85
-88.02
-94.06
-98.61
-102.04
-105.25
-109.33
-115.05
-122.61
-131.50
-140.55
-148.42
-153.94
-156.35
-155.25
-150.32
-141.14
-127.18
-108.16
-84.30
-56.39
-25.30
8.48
45.07
84.46
125.73
166.34
202.42
230.01
246.81
253.04
251.19
244.60
235.78
225.27
211.61
192.32
165.35
130.40
89.56
46.72
6.30
-28.26
-55.81
-77.32
-94.59
-108.17
-116.17
-114.75
-100.53
-73.29
-37.45
-0.92
28.05
44.40
48.10
43.22
35.30
28.47
24.13
21.44
19.07
16.71
15.34
16.38
20.49
26.91
33.73
38.77
40.61
39.10
35.31
30.82
27.08
24.88
24.20
24.39
24.58
24.10
22.76
20.91
19.19
18.25
18.38
19.40
20.69
21.50
21.27
19.89
17.67
15.20
13.01
11.41
10.38
9.68
9.04
8.30
7.43
6.56
5.80
5.22
4.78
4.42
4.10
3.81
3.60
3.50
3.48
3.41
3.19
2.77
2.19
1.63
1.26
1.15
1.30
1.57
1.80
1.87
1.72
1.36
0.86
0.34
-0.09
-0.34
-0.37
-0.20
0.07
0.33
0.48
0.49
0.39
0.18
-0.09
-0.43
-0.83
-1.26
-1.64
-1.89
-1.94
-1.78
-1.47
-1.09
-0.75
-0.48
-0.24
0.06
0.54
1.34
2.51
4.06
5.93
7.94
9.90
11.63
13.02
14.07
14.90
15.69
16.59
17.69
18.96
20.31
21.65
22.94
24.28
25.86
27.93
30.67
34.09
38.04
42.18
46.17
49.82
53.22
56.78
61.01
66.33
72.82
80.16
87.75
95.05
101.82
108.24
114.84
122.18
130.68
140.54
151.91
164.88
179.26
194.03
206.94
214.73
213.90
201.95
178.35
144.64
103.48
57.44
8.19
-43.16
-95.02
-144.31
-186.53
-217.03
-232.99
-234.75
-225.80
-211.24
-195.74
-181.99
-170.40
-159.95
-149.53
-138.88
-128.60
-119.58
-112.24
-106.17
-100.34
-93.66
-85.62
-76.52
-67.35
-59.30
-53.18
-49.09
-46.44
-44.24
-41.57
-37.94
-33.41
-28.44
-23.62
-19.42
-16.06
-13.53
-11.68
-10.33
-9.34
-8.64
-8.19
-7.97
-7.91
-7.92
-7.85
-7.52
-6.86
-5.86
-4.62
-3.35
-2.25
-1.46
-1.01
-0.84
-0.80
-0.76
-0.66
-0.50
-0.36
-0.27
-0.24
-0.22
-0.14
0.02
0.21
0.37
0.40
0.28
0.04
-0.24
-0.46
-0.56
-0.53
-0.37
-0.13
0.13
0.34
0.48
0.58
0.69
0.88
1.18
1.55
1.90
2.16
2.30
2.36
2.41
2.52
2.71
2.94
3.18
3.40
3.66
3.97
4.29
4.47
4.31
3.64
2.45
0.90
-0.74
-2.20
-3.29
-3.99
-4.35
-4.47
-4.43
-4.24
-3.98
-3.73
-3.60
-3.71
-4.05
-4.52
-4.93
-5.11
-4.97
-4.56
-4.01
-3.46
-3.03
-2.71
-2.48
-2.26
-2.01
-1.68
-1.24
-0.71
-0.13
0.38
0.72
0.84
0.77
0.63
0.50
0.43
0.38
0.28
0.08
-0.22
-0.58
-0.97
-1.40
-1.92
-2.56
-3.27
-3.97
-4.53
-4.90
-5.06
-5.04
-4.90
-4.69
-4.45
-4.25
-4.12
-4.05
-3.95
-3.71
-3.23
-2.51
-1.64
-0.80
-0.16
0.23
0.42
0.58
0.83
1.28
1.94
2.81
3.85
4.95
5.97
6.70
7.00
6.83
6.33
5.76
5.37
5.29
5.46
5.67
5.61
5.06
3.95
2.38
0.58
-1.12
-2.45
-3.24
-3.47
-3.34
-3.09
-2.90
-2.76
-2.44
-1.60
0.04
2.49
5.48
8.55
11.28
13.40
14.99
16.22
17.29
18.23
18.87
18.92
18.14
16.39
13.71
10.29
6.40
2.39
-1.37
-4.59
-7.06
-8.73
-9.70
-10.14
-10.23
-10.06
-9.68
-9.08
-8.29
-7.33
-6.24
-5.06
-3.80
-2.50
-1.27
-0.22
0.52
0.88
0.93
0.78
0.61
0.52
0.53
0.60
0.61
0.50
0.26
-0.02
-0.26
-0.37
-0.35
-0.31
-0.35
-0.59
-1.04
-1.61
-2.17
-2.59
-2.84
-2.95
-3.04
-3.25
-3.66
-4.29
-5.04
-5.78
-6.37
-6.73
-6.88
-6.91
-6.95
-7.07
-7.32
-7.70
-8.21
-8.85
-9.62
-10.50
-11.45
-12.42
-13.43
-14.53
-15.81
-17.35
-19.13
-21.09
-23.16
-25.32
-27.60
-30.14
-33.05
-36.38
-40.11
-44.17
-48.45
-52.90
-57.51
-62.37
-67.58
-73.24
-79.42
-86.09
-93.16
-100.49
-107.94
-115.46
-123.10
-131.01
-139.27
-147.79
-156.42
-165.01
-173.48
-181.64
-188.76
-193.29
-192.82
-184.73
-167.04
-139.12
-101.79
-56.88
-6.73
46.02
98.21
145.96
184.94
211.49
223.98
223.56
213.96
199.97
185.72
173.42
163.30
154.45
145.85
137.08
128.34
120.00
112.19
104.72
97.28
89.74
82.22
75.10
68.74
63.31
58.69
54.53
50.48
46.28
41.91
37.57
33.56
30.18
27.54
25.58
24.05
22.60
20.97
19.02
16.83
14.57
12.46
10.61
9.03
7.61
6.28
4.98
3.74
2.61
1.64
0.86
0.23
-0.25
-0.62
-0.87
-0.98
-0.97
-0.84
-0.61
-0.33
-0.03
0.28
0.62
0.99
1.41
1.88
2.35
2.77
3.06
3.16
3.10
2.97
2.86
2.80
2.75
2.58
2.20
1.61
0.94
0.37
0.05
0.03
0.24
0.53
0.77
0.88
0.86
0.73
0.53
0.26
-0.04
-0.34
-0.59
-0.72
-0.71
-0.53
-0.23
0.11
0.41
0.57
0.59
0.52
0.44
0.45
0.59
0.83
1.09
1.32
1.46
1.55
1.58
1.59
1.58
1.57
1.60
1.72
1.96
2.31
2.68
2.97
3.14
3.20
3.23
3.32
3.50
3.68
3.72
3.45
2.82
1.91
0.90
0.06
-0.43
-0.49
-0.15
0.39
0.87
0.94
0.27
-1.33
-3.82
-6.81
-9.72
-11.94
-13.07
-13.12
-12.39
-11.29
-10.11
-8.96
-7.78
-6.55
-5.41
-4.59
-4.29
-4.54
-5.12
-5.69
-5.88
-5.45
-4.33
-2.58
-0.39
2.02
4.35
6.34
7.82
8.71
9.06
9.00
8.68
8.22
7.71
7.24
6.85
6.58
6.41
6.31
6.20
6.07
5.93
5.83
5.80
5.83
5.87
5.83
5.67
5.37
4.98
4.55
4.15
3.77
3.42
3.08
2.79
2.54
2.36
2.17
1.89
1.39
0.57
-0.57
-1.94
-3.41
-4.80
-6.00
-6.97
-7.71
-8.24
-8.53
-8.54
-8.21
-7.61
-6.85
-6.15
-5.66
-5.44
-5.41
-5.41
-5.27
-4.91
-4.40
-3.85
-3.37
-3.01
-2.69
-2.34
-1.88
-1.30
-0.68
-0.13
0.28
0.51
0.58
0.56
0.54
0.56
0.64
0.76
0.88
0.98
1.05
1.12
1.22
1.37
1.53
1.69
1.80
1.84
1.80
1.64
1.37
1.01
0.60
0.25
0.02
-0.07
-0.06
0.01
0.09
0.18
0.28
0.37
0.35
0.12
-0.34
-0.93
-1.43
-1.65
-1.49
-1.05
-0.55
-0.20
-0.11
-0.26
-0.52
-0.79
-1.01
-1.19
-1.38
-1.59
-1.80
-1.97
-2.07
-2.13
-2.18
-2.25
-2.37
-2.53
-2.71
-2.87
-3.00
-3.07
-3.09
-3.07
-3.02
-2.94
-2.82
-2.64
-2.41
-2.11
-1.77
-1.40
-0.97
-0.49
0.06
0.71
1.47
2.34
3.33
4.36
5.33
6.11
6.56
6.64
6.40
5.98
5.53
5.17
4.95
4.84
4.82
4.86
4.94
5.06
5.19
5.29
5.35
5.37
5.37
5.33
5.27
5.13
4.92
4.65
4.41
4.27
4.33
4.57
4.91
5.23
5.37
5.22
4.70
3.84
2.71
1.52
0.45
-0.27
-0.58
-0.54
-0.38
-0.37
-0.73
-1.54
-2.66
-3.85
-4.85
-5.46
-5.67
-5.57
-5.33
-5.10
-4.98
-4.96
-4.96
-4.91
-4.75
-4.50
-4.22
-3.99
-3.85
-3.75
-3.65
-3.46
-3.19
-2.89
-2.63
-2.49
-2.49
-2.55
-2.56
-2.40
-2.03
-1.49
-0.91
-0.40
-0.07
0.06
0.04
-0.07
-0.18
-0.23
-0.22
-0.18
-0.15
-0.14
-0.15
-0.15
-0.12
-0.08
-0.04
0.02
0.13
0.30
0.54
0.77
0.90
0.83
0.56
0.20
-0.11
-0.26
-0.23
-0.11
-0.01
-0.02
-0.12
-0.28
-0.42
-0.49
-0.51
-0.47
-0.40
-0.27
-0.09
0.10
0.24
0.27
0.17
-0.03
-0.25
-0.41
-0.48
-0.48
-0.45
-0.41
-0.34
-0.22
-0.04
0.20
0.43
0.59
0.63
0.54
0.35
0.15
0.02
0.03
0.16
0.37
0.53
0.54
0.34
-0.02
-0.43
-0.73
-0.85
-0.80
-0.64
-0.48
-0.34
-0.20
0.01
0.31
0.66
0.99
1.18
1.18
1.02
0.79
0.57
0.39
0.26
0.13
-0.01
-0.13
-0.20
-0.20
-0.17
-0.17
-0.28
-0.49
-0.74
-0.94
-1.00
-0.90
-0.70
-0.47
-0.26
-0.06
0.18
0.49
0.85
1.17
1.36
1.37
1.22
1.04
0.94
0.99
1.16
1.36
1.50
1.51
1.39
1.17
0.91
0.63
0.36
0.10
-0.15
-0.38
-0.62
-0.90
-1.22
-1.56
-1.87
-2.12
-2.32
-2.49
-2.64
-2.80
-2.96
-3.10
-3.23
-3.38
-3.58
-3.83
-4.08
-4.23
-4.20
-3.93
-3.41
-2.65
-1.64
-0.41
1.01
2.53
3.97
5.14
5.88
6.15
6.04
5.71
5.40
5.25
5.30
5.46
5.57
5.51
5.22
4.76
4.25
3.81
3.51
3.37
3.33
3.28
3.16
2.93
2.56
2.10
1.59
1.10
0.70
0.40
0.20
0.02
-0.21
-0.53
-0.92
-1.28
-1.51
-1.51
-1.29
-0.93
-0.59
-0.43
-0.53
-0.90
-1.43
-2.01
-2.50
-2.84
-3.01
-3.00
-2.86
-2.64
-2.37
-2.14
-2.00
-2.00
-2.15
-2.39
-2.62
-2.73
-2.67
-2.43
-2.06
-1.65
-1.27
-0.99
-0.81
-0.71
-0.62
-0.49
-0.28
0.03
0.39
0.75
1.02
1.16
1.14
0.99
0.78
0.55
0.33
0.13
-0.04
-0.20
-0.33
-0.45
-0.57
-0.70
-0.83
-0.94
-0.99
-0.95
-0.83
-0.68
-0.54
-0.45
-0.41
-0.39
-0.34
-0.25
-0.09
0.13
0.37
0.59
0.73
0.71
0.50
0.13
-0.27
-0.57
-0.63
-0.44
-0.08
0.30
0.53
0.54
0.35
0.05
-0.26
-0.49
-0.63
-0.68
-0.63
-0.48
-0.22
0.12
0.44
0.60
0.52
0.20
-0.24
-0.60
-0.76
-0.68
-0.44
-0.22
-0.10
-0.09
-0.12
-0.08
0.08
0.29
0.46
0.48
0.35
0.12
-0.10
-0.24
-0.31
-0.36
-0.46
-0.64
-0.82
-0.93
-0.89
-0.69
-0.41
-0.14
0.08
0.24
0.39
0.57
0.78
0.94
0.97
0.85
0.64
0.47
0.44
0.57
0.79
0.97
0.96
0.73
0.35
-0.04
-0.30
-0.35
-0.24
-0.08
0.02
-0.03
-0.19
-0.38
-0.51
-0.52
-0.45
-0.38
-0.44
-0.68
-1.08
-1.51
-1.88
-2.11
-2.22
-2.29
-2.39
-2.54
-2.68
-2.76
-2.76
-2.72
-2.74
-2.88
-3.14
-3.46
-3.73
-3.87
-3.90
-3.90
-3.95
-4.13
-4.43
-4.73
-4.87
-4.68
-4.11
-3.20
-2.05
-0.78
0.59
2.10
3.76
5.51
7.15
8.45
9.24
9.54
9.51
9.37
9.26
9.19
9.06
8.82
8.48
8.15
7.96
7.90
7.88
7.74
7.37
6.75
5.94
5.05
4.15
3.29
2.44
1.59
0.68
-0.28
-1.27
-2.28
-3.22
-4.06
-4.73
-5.19
-5.42
-5.44
-5.28
-5.02
-4.74
-4.52
-4.38
-4.31
-4.26
-4.19
-4.08
-3.94
-3.81
-3.68
-3.52
-3.28
-2.92
-2.42
-1.84
-1.27
-0.81
-0.53
-0.45
-0.52
-0.68
-0.82
-0.90
-0.87
-0.74
-0.54
-0.31
-0.09
0.08
0.19
0.21
0.14
-0.00
-0.19
-0.41
-0.59
-0.69
-0.69
-0.58
-0.44
-0.33
-0.32
-0.41
-0.54
-0.64
-0.67
-0.61
-0.50
-0.39
-0.30
-0.20
-0.09
0.01
0.03
-0.13
-0.46
-0.90
-1.28
-1.42
-1.23
-0.79
-0.28
0.08
0.14
-0.10
-0.55
-1.06
-1.54
-1.92
-2.16
-2.26
-2.18
-1.97
-1.70
-1.48
-1.41
-1.53
-1.75
-1.91
-1.83
-1.37
-0.51
0.66
2.02
3.42
4.76
5.94
6.89
7.54
7.87
7.89
7.64
7.21
6.70
6.18
5.77
5.52
5.44
5.44
5.38
5.10
4.50
3.68
2.83
2.20
1.92
1.96
2.11
2.14
1.94
1.54
1.13
0.89
0.88
1.07
1.31
1.46
1.45
1.31
1.11
0.89
0.66
0.41
0.12
-0.22
-0.56
-0.88
-1.17
-1.42
-1.66
-1.91
-2.17
-2.44
-2.70
-2.91
-2.98
-2.90
-2.67
-2.40
-2.25
-2.34
-2.68
-3.13
-3.44
-3.46
-3.16
-2.71
-2.34
-2.20
-2.27
-2.37
-2.35
-2.15
-1.91
-1.80
-1.93
-2.22
-2.44
-2.40
-2.03
-1.48
-1.00
-0.78
-0.87
-1.13
-1.38
-1.44
-1.28
-0.97
-0.61
-0.29
-0.08
0.02
0.01
-0.08
-0.22
-0.36
-0.45
-0.47
-0.44
-0.38
-0.32
-0.28
-0.28
-0.31
-0.37
-0.41
-0.39
-0.28
-0.09
0.14
0.35
0.50
0.56
0.54
0.45
0.31
0.10
-0.13
-0.34
-0.47
-0.49
-0.37
-0.14
0.14
0.42
0.65
0.80
0.85
0.79
0.64
0.45
0.31
0.29
0.38
0.53
0.65
0.65
0.49
0.22
-0.06
-0.26
-0.33
-0.28
-0.17
-0.06
-0.03
-0.08
-0.19
-0.31
-0.39
-0.39
-0.30
-0.13
0.05
0.21
0.30
0.31
0.23
0.07
-0.15
-0.39
-0.58
-0.66
-0.58
-0.38
-0.13
0.07
0.15
0.12
-0.00
-0.14
-0.24
-0.28
-0.24
-0.12
0.05
0.19
0.22
0.09
-0.19
-0.55
-0.84
-0.91
-0.69
-0.22
0.38
0.94
1.30
1.39
1.20
0.83
0.39
0.03
-0.17
-0.18
-0.03
0.23
0.52
0.81
1.03
1.14
1.11
0.95
0.73
0.54
0.45
0.43
0.42
0.34
0.16
-0.06
-0.26
-0.37
-0.42
-0.46
-0.52
-0.60
-0.61
-0.50
-0.27
-0.01
0.15
0.13
-0.07
-0.33
-0.52
-0.53
-0.35
-0.05
0.26
0.48
0.58
0.59
0.55
0.47
0.36
0.17
-0.07
-0.36
-0.63
-0.85
-0.98
-1.03
-1.02
-0.95
-0.83
-0.63
-0.38
-0.08
0.22
0.50
0.72
0.84
0.82
0.66
0.40
0.13
-0.10
-0.29
-0.48
-0.76
-1.17
-1.66
-2.13
-2.46
-2.60
-2.57
-2.42
-2.16
-1.74
-1.10
-0.22
0.82
1.82
2.55
2.85
2.72
2.27
1.69
1.13
0.67
0.31
-0.03
-0.39
-0.82
-1.32
-1.84
-2.35
-2.84
-3.30
-3.74
-4.13
-4.45
-4.64
-4.68
-4.58
-4.37
-4.16
-3.99
-3.89
-3.82
-3.70
-3.50
-3.21
-2.84
-2.39
-1.83
-1.09
-0.16
0.91
1.97
2.85
3.44
3.74
3.88
4.01
4.21
4.47
4.68
4.72
4.54
4.18
3.76
3.41
3.20
3.09
3.01
2.83
2.53
2.10
1.61
1.13
0.67
0.21
-0.29
-0.85
-1.44
-1.94
-2.25
-2.31
-2.16
-1.94
-1.83
-1.96
-2.33
-2.84
-3.34
-3.70
-3.85
-3.82
-3.64
-3.37
-3.04
-2.71
-2.45
-2.29
-2.19
-2.00
-1.51
-0.55
0.92
2.71
4.51
5.96
6.81
7.04
6.81
6.37
5.95
5.63
5.37
5.08
4.69
4.24
3.85
3.62
3.58
3.64
3.65
3.45
2.99
2.36
1.68
1.12
0.73
0.50
0.32
0.10
-0.26
-0.76
-1.38
-2.04
-2.64
-3.11
-3.39
-3.52
-3.53
-3.49
-3.44
-3.42
-3.44
-3.47
-3.47
-3.38
-3.13
-2.70
-2.15
-1.61
-1.17
-0.91
-0.79
-0.71
-0.59
-0.41
-0.24
-0.17
-0.23
-0.37
-0.47
-0.43
-0.20
0.15
0.51
0.76
0.84
0.75
0.56
0.36
0.23
0.20
0.22
0.20
0.07
-0.18
-0.45
-0.56
-0.38
0.11
0.81
1.50
1.96
2.12
2.02
1.80
1.61
1.48
1.38
1.26
1.13
1.03
1.03
1.11
1.18
1.10
0.77
0.19
-0.46
-0.96
-1.13
-0.91
-0.41
0.15
0.57
0.72
0.60
0.33
0.06
-0.06
0.05
0.39
0.88
1.40
1.80
1.97
1.91
1.66
1.35
1.12
1.11
1.38
1.92
2.61
3.24
3.52
3.24
2.34
0.93
-0.65
-2.06
-3.02
-3.49
-3.61
-3.63
-3.73
-3.98
-4.29
-4.51
-4.53
-4.34
-4.02
-3.70
-3.44
-3.27
-3.13
-2.98
-2.80
-2.61
-2.46
-2.45
-2.57
-2.82
-3.11
-3.35
-3.47
-3.44
-3.28
-3.01
-2.66
-2.27
-1.92
-1.70
-1.73
-2.05
-2.57
-3.11
-3.42
-3.28
-2.60
-1.40
0.17
1.94
3.69
5.23
6.41
7.10
7.25
6.91
6.21
5.37
4.58
3.98
3.63
3.50
3.52
3.59
3.67
3.71
3.70
3.66
3.59
3.50
3.38
3.23
3.08
2.93
2.76
2.57
2.32
2.01
1.68
1.38
1.16
1.09
1.18
1.40
1.73
2.09
2.47
2.84
3.19
3.51
3.74
3.84
3.78
3.60
3.36
3.13
2.97
2.92
2.97
3.09
3.22
3.31
3.29
3.12
2.83
2.46
2.10
1.80
1.61
1.52
1.48
1.48
1.50
1.57
1.67
1.75
1.72
1.52
1.12
0.59
0.05
-0.38
-0.65
-0.78
-0.86
-0.97
-1.14
-1.33
-1.47
-1.43
-1.13
-0.53
0.32
1.33
2.37
3.32
4.11
4.75
5.29
5.85
6.47
7.20
8.07
9.04
10.01
10.75
10.92
10.16
8.32
5.53
2.30
-0.74
-3.07
-4.49
-5.18
-5.51
-5.80
-6.17
-6.52
-6.69
-6.66
-6.60
-6.78
-7.37
-8.34
-9.39
-10.17
-10.46
-10.23
-9.64
-8.97
-8.40
-7.97
-7.61
-7.18
-6.60
-5.90
-5.19
-4.60
-4.23
-4.08
-4.07
-4.08
-4.00
-3.76
-3.34
-2.80
-2.21
-1.68
-1.31
-1.12
-1.13
-1.25
-1.38
-1.44
-1.37
-1.18
-0.95
-0.75
-0.64
-0.62
-0.67
-0.73
-0.75
-0.72
-0.63
-0.49
-0.31
-0.07
0.23
0.57
0.91
1.20
1.42
1.56
1.66
1.80
1.98
2.15
2.23
2.14
1.89
1.60
1.46
1.59
2.03
2.66
3.26
3.66
3.80
3.75
3.68
3.79
4.22
4.96
5.92
6.93
7.85
8.59
9.15
9.59
10.05
10.66
11.54
12.74
14.22
15.81
17.15
17.87
17.65
16.45
14.57
12.63
11.29
11.05
11.98
13.70
15.55
16.85
17.17
16.52
15.26
13.95
13.10
12.95
13.30
13.45
12.29
8.74
2.18
-7.18
-18.26
-29.44
-39.09
-46.18
-50.47
-52.45
-52.88
-52.44
-51.56
-50.42
-49.22
-48.17
-47.46
-47.02
-46.46
-45.20
-42.66
-38.57
-32.99
-26.32
-19.10
-11.89
-5.15
0.71
5.42
8.78
10.76
11.53
11.47
11.03
10.71
10.85
11.63
12.97
14.65
16.32
17.63
18.39
18.53
18.19
17.59
16.91
16.21
15.46
14.60
13.61
12.57
11.64
10.93
10.43
9.99
9.39
8.46
7.18
5.68
4.22
3.02
2.23
1.85
1.76
1.79
1.81
1.70
1.45
1.10
0.69
0.32
0.05
-0.09
-0.05
0.13
0.43
0.77
1.10
1.36
1.50
1.50
1.36
1.12
0.85
0.66
0.70
1.04
1.61
2.16
2.37
1.98
0.92
-0.61
-2.20
-3.43
-4.06
-4.06
-3.65
-3.11
-2.64
-2.32
-2.14
-2.04
-2.02
-2.10
-2.29
-2.55
-2.76
-2.84
-2.71
-2.44
-2.12
-1.90
-1.85
-1.99
-2.25
-2.53
-2.78
-2.98
-3.17
-3.39
-3.69
-4.06
-4.50
-4.98
-5.48
-5.97
-6.46
-6.99
-7.58
-8.25
-9.00
-9.79
-10.57
-11.29
-11.94
-12.55
-13.18
-13.93
-14.84
-15.89
-16.99
-17.95
-18.56
-18.63
-18.07
-16.91
-15.35
-13.65
-12.02
-10.57
-9.20
-7.68
-5.71
-3.08
0.25
4.14
8.24
12.16
15.53
18.11
19.79
20.62
20.72
20.27
19.47
18.52
17.62
16.94
16.58
16.47
16.46
16.33
15.89
15.12
14.12
13.07
12.13
11.36
10.72
10.14
9.58
9.09
8.75
8.56
8.48
8.35
8.06
7.54
6.86
6.12
5.39
4.68
3.97
3.28
2.67
2.23
2.03
2.01
2.02
1.85
1.39
0.63
-0.24
-1.05
-1.63
-1.97
-2.17
-2.38
-2.69
-3.10
-3.49
-3.76
-3.86
-3.80
-3.66
-3.55
-3.47
-3.39
-3.27
-3.11
-2.97
-2.91
-2.98
-3.15
-3.32
-3.36
-3.22
-2.88
-2.43
-1.99
-1.68
-1.59
-1.73
-2.02
-2.32
-2.45
-2.30
-1.86
-1.25
-0.67
-0.28
-0.13
-0.17
-0.23
-0.18
0.03
0.40
0.81
1.18
1.46
1.62
1.70
1.74
1.78
1.83
1.85
1.80
1.68
1.51
1.35
1.27
1.32
1.48
1.67
1.81
1.85
1.77
1.59
1.34
1.04
0.71
0.38
0.10
-0.06
-0.08
0.02
0.18
0.30
0.32
0.18
-0.08
-0.42
-0.76
-1.04
-1.22
-1.28
-1.27
-1.23
-1.22
-1.25
-1.28
-1.28
-1.21
-1.11
-1.00
-0.95
-0.96
-1.03
-1.12
-1.17
-1.18
-1.17
-1.19
-1.27
-1.38
-1.50
-1.58
-1.61
-1.60
-1.55
-1.43
-1.20
-0.83
-0.30
0.32
0.96
1.55
2.04
2.40
2.63
2.73
2.67
2.44
2.08
1.69
1.38
1.24
1.27
1.39
1.48
1.46
1.30
1.03
0.75
0.54
0.43
0.41
0.41
0.40
0.34
0.27
0.18
0.10
0.02
-0.08
-0.20
-0.30
-0.36
-0.33
-0.23
-0.08
0.06
0.17
0.24
0.30
0.37
0.46
0.54
0.55
0.45
0.24
-0.04
-0.33
-0.54
-0.65
-0.65
-0.59
-0.49
-0.38
-0.26
-0.13
-0.02
0.05
0.06
0.03
-0.00
0.02
0.12
0.26
0.41
0.50
0.52
0.47
0.35
0.18
-0.01
-0.20
-0.34
-0.43
-0.46
-0.44
-0.37
-0.25
-0.09
0.12
0.35
0.57
0.76
0.90
0.99
1.03
1.00
0.90
0.76
0.60
0.49
0.45
0.48
0.56
0.66
0.75
0.80
0.78
0.62
0.28
-0.24
-0.87
-1.48
-1.95
-2.21
-2.25
-2.14
-1.95
-1.75
-1.58
-1.39
-1.15
-0.81
-0.40
0.03
0.41
0.66
0.73
0.64
0.45
0.27
0.14
0.09
0.11
0.16
0.21
0.26
0.29
0.28
0.22
0.12
-0.04
-0.24
-0.45
-0.64
-0.77
-0.79
-0.68
-0.46
-0.22
-0.05
-0.01
-0.11
-0.30
-0.48
-0.58
-0.57
-0.47
-0.32
-0.11
0.19
0.62
1.15
1.68
2.09
2.25
2.18
1.97
1.77
1.68
1.73
1.82
1.86
1.76
1.52
1.21
0.92
0.70
0.58
0.56
0.63
0.78
0.99
1.25
1.52
1.80
2.06
2.26
2.41
2.51
2.57
2.61
2.64
2.66
2.65
2.59
2.45
2.23
1.96
1.66
1.36
1.06
0.74
0.38
-0.02
-0.41
-0.75
-0.98
-1.08
-1.11
-1.14
-1.29
-1.64
-2.20
-2.90
-3.61
-4.17
-4.46
-4.45
-4.22
-3.90
-3.64
-3.56
-3.65
-3.87
-4.09
-4.23
-4.22
-4.10
-3.91
-3.70
-3.53
-3.40
-3.29
-3.16
-2.93
-2.58
-2.10
-1.53
-0.95
-0.42
0.02
0.37
0.69
1.01
1.34
1.62
1.77
1.74
1.51
1.17
0.82
0.61
0.62
0.86
1.25
1.65
1.93
2.01
1.90
1.65
1.38
1.22
1.24
1.46
1.86
2.33
2.74
3.00
3.06
2.92
2.64
2.29
1.92
1.57
1.23
0.88
0.53
0.18
-0.13
-0.36
-0.50
-0.56
-0.60
-0.69
-0.88
-1.15
-1.46
-1.74
-1.92
-2.01
-1.98
-1.85
-1.61
-1.26
-0.84
-0.42
-0.13
-0.03
-0.15
-0.46
-0.87
-1.28
-1.59
-1.76
-1.78
-1.68
-1.55
-1.46
-1.48
-1.59
-1.74
-1.83
-1.76
-1.52
-1.16
-0.71
-0.20
0.35
0.92
1.48
1.95
2.25
2.36
2.38
2.42
2.57
2.84
3.10
3.18
2.95
2.40
1.66
0.90
0.25
-0.22
-0.53
-0.74
-0.85
-0.85
-0.72
-0.47
-0.19
-0.01
-0.02
-0.24
-0.58
-0.91
-1.11
-1.15
-1.05
-0.89
-0.74
-0.63
-0.56
-0.53
-0.52
-0.51
-0.45
-0.29
0.03
0.53
1.13
1.69
2.08
2.23
2.14
1.90
1.60
1.33
1.13
0.99
0.88
0.77
0.62
0.42
0.21
0.03
-0.06
-0.03
0.09
0.24
0.33
0.30
0.12
-0.16
-0.46
-0.72
-0.89
-0.94
-0.84
-0.60
-0.24
0.16
0.49
0.63
0.53
0.21
-0.22
-0.63
-0.89
-0.94
-0.79
-0.52
-0.23
0.02
0.19
0.29
0.36
0.43
0.51
0.59
0.64
0.65
0.66
0.69
0.75
0.84
0.92
0.99
1.06
1.17
1.33
1.53
1.74
1.91
2.03
2.16
2.40
2.81
3.38
3.99
4.52
4.91
5.21
5.60
6.23
7.19
8.36
9.50
10.33
10.81
11.11
11.66
12.91
15.10
18.06
21.28
24.06
25.90
26.78
27.24
28.23
30.69
35.07
41.07
47.67
53.56
57.72
59.99
61.24
63.01
66.83
73.50
82.60
92.65
101.78
108.51
112.53
114.82
117.27
122.01
130.53
143.14
158.64
174.35
186.39
190.49
183.14
162.88
131.38
93.52
56.13
25.63
5.41
-5.70
-13.05
-23.99
-44.62
-77.15
-118.99
-164.01
-205.08
-236.80
-256.91
-266.19
-267.21
-262.75
-254.87
-244.93
-234.12
-223.91
-216.08
-212.04
-212.11
-215.27
-219.37
-222.25
-222.60
-220.62
-217.91
-216.83
-219.58
-227.19
-238.83
-251.54
-260.91
-262.23
-252.01
-229.15
-195.19
-153.36
-106.99
-58.23
-7.79
43.99
95.70
144.03
184.32
212.30
226.04
226.92
218.99
207.17
195.31
185.10
176.25
167.55
158.12
147.92
137.66
128.13
119.68
111.99
104.43
96.43
87.84
79.02
70.65
63.35
57.40
52.67
48.68
44.88
40.90
36.65
32.37
28.41
25.08
22.52
20.65
19.21
17.90
16.48
14.86
13.13
11.45
10.01
8.92
8.18
7.69
7.32
6.91
6.38
5.73
5.01
4.38
4.01
4.04
4.55
5.51
6.70
7.82
8.53
8.61
8.00
6.89
5.63
4.61
4.14
4.37
5.28
6.61
7.92
8.58
8.05
6.00
2.55
-1.69
-5.86
-9.11
-10.98
-11.52
-11.14
-10.41
-9.70
-9.10
-8.48
-7.70
-6.72
-5.68
-4.75
-4.04
-3.53
-3.12
-2.70
-2.20
-1.66
-1.18
-0.87
-0.81
-0.99
-1.34
-1.74
-2.03
-2.12
-1.96
-1.60
-1.16
-0.78
-0.58
-0.58
-0.73
-0.91
-0.96
-0.79
-0.41
0.11
0.59
0.89
0.98
0.89
0.77
0.76
0.93
1.22
1.53
1.70
1.66
1.41
1.01
0.57
0.18
-0.11
-0.29
-0.41
-0.55
-0.77
-1.14
-1.62
-2.15
-2.63
-2.98
-3.19
-3.32
-3.46
-3.65
-3.89
-4.16
-4.46
-4.80
-5.15
-5.44
-5.50
-5.10
-4.11
-2.50
-0.47
1.68
3.59
4.99
5.74
5.80
5.20
4.04
2.46
0.72
-0.91
-2.15
-2.87
-3.13
-3.16
-3.24
-3.54
-4.06
-4.65
-5.09
-5.23
-5.04
-4.62
-4.11
-3.58
-3.06
-2.55
-2.06
-1.67
-1.48
-1.55
-1.87
-2.28
-2.60
-2.68
-2.46
-2.01
-1.48
-0.99
-0.62
-0.30
0.11
0.74
1.64
2.75
3.88
4.83
5.49
5.83
5.94
5.95
5.93
5.91
5.84
5.70
5.50
5.27
5.05
4.82
4.52
4.05
3.36
2.51
1.61
0.82
0.27
-0.01
-0.07
0.00
0.11
0.21
0.32
0.46
0.64
0.87
1.16
1.51
1.95
2.48
3.07
3.66
4.14
4.49
4.69
4.80
4.89
4.98
5.07
5.11
5.02
4.72
4.14
3.23
2.01
0.56
-0.97
-2.38
-3.49
-4.24
-4.62
-4.76
-4.80
-4.87
-5.04
-5.31
-5.60
-5.83
-5.92
-5.83
-5.57
-5.20
-4.79
-4.45
-4.23
-4.19
-4.33
-4.59
-4.84
-4.92
-4.67
-4.05
-3.14
-2.14
-1.28
-0.74
-0.57
-0.70
-0.99
-1.30
-1.51
-1.54
-1.35
-0.96
-0.41
0.21
0.76
1.11
1.19
1.00
0.62
0.17
-0.25
-0.57
-0.75
-0.82
-0.83
-0.79
-0.72
-0.60
-0.43
-0.22
-0.01
0.14
0.14
-0.05
-0.39
-0.78
-1.08
-1.22
-1.22
-1.19
-1.30
-1.64
-2.18
-2.83
-3.46
-4.01
-4.47
-4.91
-5.39
-5.92
-6.43
-6.84
-7.08
-7.17
-7.17
-7.17
-7.24
-7.39
-7.64
-7.93
-8.17
-8.19
-7.79
-6.72
-4.80
-1.99
1.56
5.46
9.23
12.38
14.62
15.87
16.26
16.03
15.42
14.59
13.63
12.59
11.52
10.50
9.56
8.72
7.93
7.16
6.40
5.72
5.16
4.78
4.56
4.41
4.23
3.95
3.62
3.40
3.47
3.98
4.89
5.96
6.82
7.11
6.68
5.72
4.71
4.21
4.61
5.90
7.66
9.23
10.04
9.89
8.95
7.74
6.85
6.75
7.68
9.65
12.28
14.69
15.35
12.43
4.55
-8.41
-24.70
-41.06
-53.76
-60.04
-59.10
-52.22
-41.88
-30.55
-19.89
-10.52
-2.50
4.07
8.81
11.28
11.41
9.83
7.69
6.25
6.32
8.05
10.81
13.63
15.67
16.56
16.55
16.35
16.74
18.18
20.63
23.48
25.98
27.50
27.89
27.54
27.16
27.46
28.86
31.30
34.25
37.04
39.10
40.28
40.87
41.49
42.82
45.33
49.03
53.39
57.41
59.58
58.07
51.09
37.53
17.67
-6.57
-31.96
-55.03
-73.31
-86.08
-94.32
-99.84
-104.20
-107.95
-110.70
-111.66
-110.39
-107.03
-102.02
-95.61
-87.67
-77.84
-66.03
-52.77
-39.18
-26.55
-15.87
-7.51
-1.25
3.43
7.02
9.80
11.88
13.37
14.40
15.19
15.91
16.63
17.32
17.99
18.65
19.34
20.06
20.74
21.24
21.42
21.20
20.60
19.69
18.59
17.40
16.22
15.09
14.00
12.89
11.71
10.48
9.28
8.27
7.62
7.42
7.63
8.12
8.66
9.09
9.33
9.38
9.34
9.34
9.45
9.76
10.28
10.98
11.78
12.61
13.37
14.04
14.58
15.00
15.30
15.44
15.38
15.10
14.66
14.17
13.84
13.84
14.26
15.06
16.15
17.34
18.52
19.58
20.50
21.24
21.81
22.20
22.46
22.73
23.15
23.85
24.88
26.12
27.34
28.26
28.63
28.29
27.23
25.53
23.28
20.54
17.26
13.38
8.76
3.28
-3.17
-10.68
-19.20
-28.43
-37.75
-46.25
-52.95
-57.09
-58.45
-57.41
-54.86
-51.78
-48.91
-46.57
-44.67
-42.96
-41.16
-39.10
-36.63
-33.55
-29.67
-24.87
-19.32
-13.47
-7.98
-3.44
-0.21
1.73
2.72
3.22
3.61
4.10
4.71
5.30
5.69
5.73
5.41
4.83
4.16
3.61
3.26
3.11
3.00
2.73
2.16
1.26
0.14
-1.00
-1.95
-2.59
-2.94
-3.14
-3.40
-3.86
-4.58
-5.46
-6.35
-7.06
-7.45
-7.41
-6.89
-5.90
-4.50
-2.84
-1.10
0.54
1.94
3.08
3.98
4.73
5.33
5.77
5.99
5.98
5.83
5.68
5.69
5.94
6.40
6.96
7.44
7.71
7.70
7.48
7.14
6.82
6.57
6.32
5.98
5.44
4.67
3.80
3.01
2.51
2.38
2.52
2.69
2.62
2.13
1.23
0.11
-0.98
-1.82
-2.36
-2.67
-2.94
-3.30
-3.81
-4.46
-5.21
-6.06
-7.04
-8.18
-9.41
-10.56
-11.42
-11.85
-11.85
-11.64
-11.52
-11.79
-12.57
-13.73
-14.95
-15.80
-15.91
-15.08
-13.32
-10.87
-8.11
-5.46
-3.37
-2.11
-1.83
-2.43
-3.65
-5.08
-6.30
-6.96
-6.81
-5.81
-4.07
-1.90
0.32
2.23
3.59
4.46
5.11
5.91
7.18
8.98
11.12
13.26
15.07
16.42
17.38
18.15
18.92
19.76
20.63
21.45
22.10
22.53
22.72
22.68
22.43
22.00
21.44
20.79
20.09
19.35
18.52
17.54
16.24
14.46
12.03
8.94
5.30
1.35
-2.57
-6.15
-9.14
-11.47
-13.10
-14.08
-14.48
-14.39
-13.94
-13.30
-12.66
-12.16
-11.84
-11.62
-11.36
-10.91
-10.23
-9.40
-8.61
-8.02
-7.76
-7.77
-7.92
-8.03
-7.97
-7.72
-7.35
-6.94
-6.60
-6.36
-6.18
-6.00
-5.71
-5.20
-4.42
-3.37
-2.11
-0.80
0.41
1.41
2.12
2.59
2.87
3.08
3.28
3.50
3.73
3.93
4.03
4.01
3.83
3.49
3.03
2.54
2.13
1.85
1.70
1.59
1.41
1.12
0.77
0.50
0.48
0.81
1.47
2.33
3.19
3.92
4.42
4.67
4.67
4.49
4.17
3.80
3.53
3.45
3.65
4.07
4.60
5.02
5.18
5.05
4.67
4.24
3.91
3.83
3.99
4.30
4.60
4.74
4.64
4.30
3.79
3.23
2.70
2.30
2.06
2.00
2.07
2.22
2.39
2.50
2.50
2.34
2.01
1.52
0.93
0.30
-0.31
-0.88
-1.46
-2.16
-3.11
-4.38
-5.96
-7.73
-9.48
-11.04
-12.34
-13.43
-14.47
-15.63
-16.96
-18.37
-19.62
-20.42
-20.53
-19.81
-18.24
-15.89
-12.82
-9.15
-5.06
-0.85
3.10
6.39
8.75
10.16
10.77
10.88
10.79
10.67
10.58
10.50
10.36
10.13
9.77
9.29
8.66
7.93
7.15
6.43
5.86
5.49
5.27
5.14
5.01
4.85
4.63
4.40
4.15
3.87
3.50
3.01
2.44
1.86
1.39
1.12
1.08
1.22
1.43
1.61
1.68
1.58
1.32
0.95
0.53
0.18
-0.01
0.04
0.32
0.72
1.08
1.24
1.16
0.89
0.57
0.32
0.22
0.29
0.45
0.62
0.73
0.71
0.55
0.26
-0.12
-0.50
-0.79
-0.92
-0.84
-0.60
-0.31
-0.09
-0.02
-0.09
-0.22
-0.28
-0.14
0.20
0.69
1.16
1.49
1.61
1.54
1.38
1.21
1.05
0.85
0.55
0.14
-0.34
-0.79
-1.13
-1.29
-1.25
-1.04
-0.70
-0.30
0.10
0.42
0.58
0.52
0.23
-0.21
-0.69
-1.02
-1.09
-0.85
-0.38
0.16
0.59
0.78
0.68
0.37
-0.03
-0.35
-0.50
-0.43
-0.18
0.15
0.46
0.64
0.63
0.48
0.26
0.05
-0.12
-0.24
-0.34
-0.41
-0.41
-0.31
-0.15
-0.03
-0.05
-0.26
-0.61
-0.96
-1.15
-1.10
-0.86
-0.55
-0.33
-0.26
-0.33
-0.44
-0.47
-0.34
-0.02
0.44
0.96
1.45
1.77
1.80
1.46
0.74
-0.21
-1.14
-1.73
-1.78
-1.29
-0.45
0.42
1.03
1.24
1.09
0.72
0.31
-0.06
-0.35
-0.56
-0.68
-0.67
-0.52
-0.27
-0.01
0.12
0.05
-0.23
-0.64
-1.02
-1.30
-1.43
-1.45
-1.43
-1.42
-1.42
-1.40
-1.34
-1.26
-1.22
-1.28
-1.45
-1.65
-1.79
-1.75
-1.45
-0.92
-0.26
0.38
0.88
1.17
1.23
1.14
0.97
0.80
0.68
0.63
0.64
0.69
0.76
0.88
1.07
1.32
1.59
1.81
1.87
1.69
1.27
0.67
0.05
-0.43
-0.61
-0.48
-0.10
0.36
0.70
0.79
0.59
0.19
-0.23
-0.50
-0.53
-0.36
-0.09
0.12
0.17
0.08
-0.06
-0.16
-0.16
-0.08
-0.00
-0.02
-0.15
-0.35
-0.53
-0.61
-0.57
-0.45
-0.34
-0.27
-0.24
-0.20
-0.10
0.05
0.20
0.27
0.21
0.03
-0.21
-0.42
-0.55
-0.57
-0.48
-0.30
-0.04
0.25
0.48
0.59
0.56
0.41
0.25
0.17
0.20
0.32
0.47
0.56
0.58
0.57
0.60
0.70
0.86
1.01
1.08
1.03
0.90
0.78
0.76
0.89
1.15
1.47
1.71
1.78
1.65
1.39
1.15
1.04
1.13
1.41
1.78
2.14
2.42
2.63
2.81
3.02
3.28
3.56
3.79
3.93
3.98
4.04
4.20
4.54
5.08
5.73
6.34
6.81
7.10
7.27
7.47
7.80
8.29
8.86
9.37
9.69
9.78
9.71
9.63
9.63
9.78
10.06
10.43
10.89
11.43
12.05
12.68
13.20
13.45
13.32
12.80
11.95
10.87
9.57
7.95
5.74
2.74
-1.05
-5.30
-9.37
-12.57
-14.44
-14.97
-14.58
-13.86
-13.32
-13.26
-13.74
-14.79
-16.42
-18.63
-21.23
-23.79
-25.79
-26.94
-27.42
-27.67
-27.88
-27.48
-25.17
-19.51
-9.80
3.28
17.74
31.05
41.28
47.81
51.39
53.57
55.86
59.16
63.60
68.79
74.10
78.96
82.96
85.91
87.99
89.76
92.24
96.62
103.84
113.93
125.32
134.71
137.40
128.51
104.61
65.33
14.11
-42.23
-95.38
-137.83
-164.88
-175.43
-171.56
-157.22
-136.86
-114.47
-93.21
-75.27
-61.92
-53.43
-49.04
-47.20
-46.07
-44.14
-40.68
-35.87
-30.61
-26.07
-23.35
-23.11
-25.26
-28.98
-32.97
-35.94
-37.25
-37.15
-36.48
-35.88
-34.96
-32.03
-24.80
-11.79
6.46
27.08
45.76
58.39
62.60
58.42
47.89
33.93
19.24
5.71
-5.59
-14.11
-19.57
-21.96
-21.67
-19.51
-16.56
-13.81
-11.90
-11.08
-11.14
-11.65
-12.10
-12.00
-11.15
-9.69
-8.00
-6.58
-5.81
-5.76
-6.16
-6.57
-6.55
-5.93
-4.80
-3.52
-2.50
-2.03
-2.15
-2.65
-3.19
-3.44
-3.23
-2.56
-1.58
-0.51
0.47
1.25
1.81
2.18
2.40
2.50
2.50
2.45
2.42
2.43
2.51
2.65
2.80
2.96
3.10
3.26
3.51
3.92
4.52
5.25
5.97
6.51
6.75
6.69
6.55
6.65
7.32
8.75
10.82
13.15
15.17
16.33
16.40
15.60
14.55
14.08
14.88
17.11
20.32
23.63
26.12
27.38
27.71
28.07
29.65
33.23
38.79
45.41
51.71
56.39
58.87
59.56
59.63
60.64
64.08
70.92
81.35
94.37
107.37
116.16
115.68
101.74
73.00
32.27
-13.78
-56.78
-89.62
-108.87
-115.38
-112.96
-106.06
-97.82
-89.54
-81.34
-73.37
-66.36
-61.39
-59.04
-58.78
-59.09
-58.19
-55.05
-49.89
-43.95
-38.87
-35.82
-34.96
-35.52
-36.19
-35.70
-33.28
-28.87
-23.07
-16.88
-11.40
-7.53
-5.67
-5.69
-6.98
-8.70
-10.12
-10.91
-11.18
-11.26
-11.44
-11.71
-11.68
-10.85
-8.86
-5.77
-2.03
1.62
4.49
6.20
6.74
6.51
6.03
5.72
5.78
6.14
6.52
6.67
6.44
5.84
5.06
4.31
3.84
3.77
4.10
4.68
5.26
5.60
5.56
5.19
4.67
4.23
3.99
3.90
3.76
3.41
2.74
1.78
0.61
-0.82
-2.70
-5.35
-9.05
-13.84
-19.43
-25.31
-30.85
-35.52
-39.07
-41.53
-43.15
-44.34
-45.52
-47.05
-49.19
-52.11
-55.84
-60.22
-64.91
-69.41
-73.37
-76.73
-79.89
-83.55
-88.39
-94.76
-102.49
-110.96
-119.39
-127.17
-134.13
-140.70
-147.78
-156.38
-166.91
-178.56
-188.97
-194.57
-191.59
-177.35
-151.11
-114.03
-68.49
-17.31
36.52
89.64
137.98
177.12
203.35
215.14
213.93
203.73
189.56
175.59
163.92
154.65
146.78
139.28
131.79
124.51
117.75
111.52
105.46
99.11
92.23
84.94
77.72
71.12
65.52
60.89
56.88
53.05
49.11
45.09
41.31
38.13
35.68
33.76
31.96
29.83
27.20
24.20
21.24
18.78
17.16
16.46
16.50
16.95
17.43
17.68
17.62
17.41
17.38
17.89
19.14
21.06
23.31
25.49
27.34
28.93
30.66
33.09
36.63
41.31
46.67
51.98
56.56
60.14
63.06
66.22
70.62
76.96
85.31
95.05
105.16
114.57
122.57
128.96
133.96
138.11
142.20
147.21
154.20
163.76
175.41
187.07
195.16
195.63
185.28
163.06
130.36
90.25
45.96
-0.54
-48.91
-99.56
-152.08
-204.08
-251.19
-288.50
-312.51
-322.59
-321.13
-312.33
-300.41
-288.19
-276.68
-265.76
-255.20
-245.37
-237.25
-231.86
-229.60
-229.99
-231.81
-233.70
-234.85
-235.43
-236.49
-239.17
-243.66
-248.28
-249.59
-243.32
-226.10
-196.97
-157.74
-112.04
-63.40
-13.79
36.59
88.04
139.58
187.94
228.10
255.27
267.13
265.03
253.49
238.24
223.82
212.00
201.50
189.29
172.53
150.09
123.12
94.37
66.82
42.62
22.91
8.51
0.46
-0.23
6.16
16.83
26.38
28.66
19.79
0.63
-22.98
-42.61
-51.14
-45.93
-29.59
-8.12
12.20
27.40
36.60
40.98
42.20
41.24
38.26
33.26
26.75
19.95
14.51
11.77
12.04
14.53
17.66
19.79
19.91
18.07
15.20
12.64
11.47
12.03
13.82
15.86
17.12
17.08
15.90
14.27
13.03
12.71
13.35
14.49
15.45
15.69
15.00
13.54
11.72
10.01
8.74
8.06
7.92
8.13
8.42
8.55
8.42
8.03
7.52
7.09
6.87
6.90
7.08
7.29
7.42
7.43
7.33
7.18
7.00
6.83
6.68
6.58
6.49
6.32
5.94
5.15
3.80
1.93
-0.28
-2.54
-4.55
-6.12
-7.21
-7.88
-8.23
-8.31
-8.11
-7.66
-7.05
-6.45
-6.05
-5.99
-6.25
-6.66
-7.04
-7.19
-7.06
-6.65
-6.06
-5.38
-4.71
-4.12
-3.67
-3.40
-3.30
-3.31
-3.30
-3.11
-2.64
-1.88
-0.93
0.05
0.88
1.46
1.76
1.83
1.80
1.78
1.83
1.97
2.13
2.27
2.34
2.36
2.38
2.43
2.51
2.54
2.44
2.12
1.58
0.93
0.36
0.01
-0.03
0.21
0.59
0.98
1.27
1.42
1.43
1.35
1.25
1.18
1.18
1.24
1.29
1.21
0.94
0.45
-0.16
-0.75
-1.20
-1.48
-1.70
-1.96
-2.37
-2.89
-3.42
-3.81
-3.96
-3.89
-3.69
-3.46
-3.26
-3.08
-2.85
-2.49
-2.01
-1.51
-1.12
-0.93
-0.98
-1.19
-1.43
-1.57
-1.52
-1.32
-1.04
-0.77
-0.56
-0.37
-0.08
0.40
1.13
2.12
3.26
4.44
5.55
6.51
7.29
7.87
8.26
8.48
8.63
8.81
9.19
9.84
10.75
11.76
12.65
13.21
13.38
13.24
13.03
12.98
13.26
13.91
14.84
15.88
16.86
17.67
18.28
18.78
19.31
20.01
20.99
22.25
23.77
25.47
27.26
29.03
30.67
32.02
33.00
33.63
34.00
34.28
34.54
34.70
34.47
33.55
31.74
29.06
25.80
22.37
19.10
16.14
13.38
10.63
7.71
4.56
1.23
-2.17
-5.58
-9.22
-13.52
-19.07
-26.34
-35.30
-45.26
-54.93
-62.85
-67.91
-69.84
-69.33
-67.73
-66.41
-66.17
-66.86
-67.55
-67.05
-64.60
-60.18
-54.48
-48.40
-42.71
-37.81
-33.99
-31.76
-31.71
-33.79
-36.38
-36.09
-28.58
-10.59
18.15
54.15
91.34
123.16
144.79
154.27
152.04
139.58
118.12
88.19
50.21
5.69
-42.32
-89.44
-131.10
-163.75
-185.30
-194.87
-192.02
-176.23
-147.18
-105.81
-55.37
-1.53
48.81
89.71
118.21
135.00
143.32
147.00
148.77
149.75
150.12
150.06
150.24
151.69
155.29
161.35
169.51
178.72
187.00
191.36
188.20
174.77
150.83
119.58
86.68
57.63
34.70
15.60
-5.02
-32.04
-66.31
-103.49
-136.05
-157.29
-164.76
-161.12
-152.06
-142.77
-135.41
-128.74
-119.99
-107.34
-91.53
-75.48
-62.82
-55.88
-54.69
-57.19
-60.37
-61.72
-60.11
-56.06
-51.10
-46.87
-44.28
-43.15
-42.48
-41.02
-37.99
-33.49
-28.40
-23.88
-20.80
-19.34
-18.97
-18.75
-17.84
-15.85
-12.99
-9.87
-7.16
-5.28
-4.24
-3.71
-3.25
-2.55
-1.55
-0.42
0.62
1.38
1.83
2.04
2.10
2.11
2.09
2.08
2.14
2.34
2.69
3.10
3.40
3.43
3.12
2.56
1.94
1.49
1.35
1.51
1.82
2.09
2.12
1.81
1.19
0.40
-0.40
-1.05
-1.47
-1.70
-1.81
-1.90
-1.95
-1.90
-1.63
-1.08
-0.30
0.59
1.45
2.18
2.76
3.25
3.69
4.11
4.50
4.82
5.04
5.12
4.96
4.42
3.31
1.51
-0.98
-3.98
-7.14
-10.11
-12.57
-14.42
-15.70
-16.55
-17.13
-17.49
-17.63
-17.57
-17.36
-17.11
-16.97
-17.00
-17.18
-17.38
-17.50
-17.46
-17.29
-17.07
-16.91
-16.92
-17.15
-17.62
-18.25
-18.94
-19.60
-20.19
-20.78
-21.55
-22.75
-24.60
-27.18
-30.43
-34.15
-38.09
-42.10
-46.14
-50.32
-54.84
-59.84
-65.38
-71.39
-77.69
-84.15
-90.66
-97.24
-103.99
-110.95
-118.22
-125.98
-134.71
-145.00
-157.05
-170.02
-181.57
-188.07
-185.64
-171.43
-144.55
-106.18
-58.95
-6.19
48.54
101.45
148.37
185.07
208.10
215.94
209.74
193.06
170.68
147.12
125.58
107.68
93.96
84.37
78.64
76.31
76.53
78.06
79.52
79.80
78.31
75.12
70.84
66.26
62.03
58.51
55.68
53.30
51.08
48.80
46.35
43.72
41.00
38.23
35.48
32.77
30.12
27.57
25.16
22.98
21.06
19.41
17.95
16.56
15.14
13.65
12.16
10.78
9.61
8.72
8.06
7.56
7.08
6.57
6.02
5.44
4.86
4.31
3.75
3.16
2.51
1.76
0.90
-0.08
-1.17
-2.36
-3.60
-4.81
-5.94
-6.91
-7.71
-8.31
-8.70
-8.83
-8.61
-7.99
-6.99
-5.74
-4.40
-3.18
-2.25
-1.68
-1.48
-1.58
-1.84
-2.11
-2.29
-2.34
-2.30
-2.25
-2.29
-2.40
-2.54
-2.60
-2.53
-2.37
-2.23
-2.19
-2.28
-2.46
-2.61
-2.66
-2.56
-2.34
-2.02
-1.60
-1.07
-0.41
0.36
1.17
1.92
2.56
3.07
3.51
3.93
4.38
4.80
5.12
5.25
5.19
5.01
4.86
4.81
4.89
5.01
5.05
4.97
4.78
4.62
4.58
4.75
5.10
5.53
5.91
6.14
6.15
5.98
5.71
5.41
5.16
4.94
4.69
4.30
3.69
2.88
1.90
0.88
-0.10
-0.97
-1.72
-2.36
-2.94
-3.50
-4.05
-4.60
-5.11
-5.53
-5.83
-6.01
-6.13
-6.26
-6.41
-6.55
-6.61
-6.50
-6.17
-5.65
-5.03
-4.41
-3.85
-3.38
-2.98
-2.66
-2.42
-2.24
-2.08
-1.86
-1.50
-0.97
-0.35
0.25
0.69
0.91
0.99
1.06
1.27
1.67
2.20
2.74
3.17
3.42
3.51
3.44
3.22
2.86
2.41
2.01
1.86
2.10
2.71
3.47
4.08
4.28
4.01
3.51
3.11
3.14
3.71
4.67
5.69
6.45
6.79
6.73
6.47
6.25
6.27
6.65
7.50
8.91
10.86
13.00
14.64
14.79
12.63
7.95
1.40
-5.62
-11.50
-15.11
-16.23
-15.47
-13.89
-12.40
-11.38
-10.72
-10.09
-9.32
-8.46
-7.76
-7.37
-7.26
-7.20
-6.95
-6.33
-5.39
-4.31
-3.33
-2.63
-2.30
-2.27
-2.37
-2.40
-2.17
-1.61
-0.79
0.13
0.95
1.58
2.08
2.63
3.44
4.65
6.22
7.99
9.74
11.33
12.71
13.92
14.98
15.91
16.67
17.26
17.68
18.01
18.31
18.64
19.01
19.38
19.72
20.00
20.20
20.28
20.23
20.10
20.00
20.05
20.35
20.85
21.34
21.53
21.14
20.04
18.28
16.08
13.73
11.52
9.67
8.33
7.56
7.32
7.46
7.76
8.01
8.12
8.18
8.41
9.02
10.02
11.06
11.47
10.49
7.60
2.76
-3.49
-10.27
-16.69
-22.12
-26.36
-29.47
-31.57
-32.73
-33.01
-32.61
-32.04
-32.08
-33.62
-37.38
-43.47
-51.00
-57.99
-61.86
-60.26
-52.04
-37.96
-20.60
-3.52
10.05
18.20
20.71
18.60
13.42
6.59
-0.83
-7.97
-14.11
-18.76
-21.93
-24.17
-26.50
-29.90
-34.53
-39.24
-41.46
-37.88
-25.76
-4.31
24.66
57.16
88.36
114.45
133.83
147.15
156.00
161.31
162.49
158.08
147.38
132.00
116.12
105.14
103.44
112.32
129.37
149.14
164.98
171.13
164.23
143.66
110.94
68.96
21.21
-28.50
-76.11
-117.49
-148.97
-168.16
-174.64
-170.38
-159.14
-145.28
-132.44
-122.51
-115.59
-110.57
-106.04
-101.02
-95.22
-88.84
-82.32
-76.06
-70.35
-65.26
-60.76
-56.71
-52.94
-49.28
-45.58
-41.79
-37.92
-34.01
-30.14
-26.40
-22.88
-19.69
-16.90
-14.53
-12.50
-10.68
-8.93
-7.21
-5.54
-4.03
-2.77
-1.76
-0.91
-0.13
0.64
1.38
2.01
2.47
2.77
2.98
3.16
3.34
3.48
3.53
3.45
3.26
3.03
2.78
2.53
2.22
1.80
1.24
0.58
-0.12
-0.83
-1.59
-2.44
-3.43
-4.56
-5.73
-6.87
-7.89
-8.73
-9.37
-9.78
-9.99
-10.06
-10.13
-10.39
-11.04
-12.18
-13.75
-15.58
-17.46
-19.22
-20.76
-22.10
-23.25
-24.20
-24.93
-25.45
-25.85
-26.32
-27.11
-28.44
-30.49
-33.29
-36.81
-40.89
-45.36
-50.03
-54.77
-59.54
-64.36
-69.28
-74.35
-79.60
-85.04
-90.76
-96.87
-103.44
-110.42
-117.59
-124.71
-131.82
-139.46
-148.49
-159.38
-171.50
-182.55
-188.83
-186.36
-172.24
-145.62
-107.72
-61.18
-9.23
44.64
96.68
142.70
178.56
201.14
209.59
205.80
193.90
178.68
163.94
151.55
141.53
132.97
125.01
117.31
110.02
103.35
97.26
91.46
85.61
79.58
73.51
67.77
62.73
58.49
54.86
51.42
47.71
43.52
38.98
34.53
30.66
27.71
25.72
24.41
23.40
22.36
21.13
19.71
18.20
16.70
15.27
13.89
12.57
11.30
10.13
9.16
8.46
8.09
8.02
8.15
8.33
8.44
8.39
8.21
7.97
7.72
7.45
7.10
6.56
5.75
4.66
3.36
1.96
0.60
-0.60
-1.56
-2.27
-2.76
-3.09
-3.32
-3.47
-3.52
-3.46
-3.31
-3.15
-3.11
-3.28
-3.65
-4.13
-4.54
-4.76
-4.77
-4.64
-4.47
-4.34
-4.25
-4.12
-3.88
-3.46
-2.89
-2.23
-1.57
-1.02
-0.62
-0.40
-0.31
-0.26
-0.15
0.09
0.45
0.85
1.20
1.46
1.64
1.77
1.90
2.00
2.02
1.91
1.73
1.61
1.69
2.03
2.55
3.04
3.29
3.17
2.80
2.42
2.33
2.72
3.54
4.55
5.40
5.88
5.95
5.82
5.81
6.23
7.18
8.56
10.04
11.27
12.06
12.37
12.39
12.37
12.51
12.96
13.80
15.11
16.80
18.42
19.05
17.52
12.92
5.23
-4.40
-13.99
-21.48
-25.64
-26.50
-25.14
-22.97
-20.99
-19.47
-18.09
-16.48
-14.63
-12.88
-11.69
-11.21
-11.17
-11.04
-10.36
-8.92
-6.97
-4.94
-3.25
-2.07
-1.23
-0.34
1.07
3.29
6.39
10.11
14.04
17.67
20.64
22.75
24.10
24.97
25.70
26.55
27.56
28.57
29.37
29.82
29.95
29.89
29.85
29.93
30.18
30.52
30.86
31.03
30.85
30.04
28.27
25.27
20.97
15.59
9.73
4.18
-0.22
-2.95
-4.05
-4.22
-4.69
-6.78
-11.41
-18.63
-27.45
-36.27
-43.36
-47.76
-49.48
-49.57
-49.50
-50.58
-53.54
-58.34
-64.32
-70.35
-74.86
-75.92
-71.57
-60.40
-42.33
-19.00
6.48
30.41
49.83
63.33
71.36
75.56
77.78
79.07
79.25
77.10
70.96
59.71
43.30
23.01
1.23
-19.04
-34.90
-44.21
-45.86
-39.93
-27.28
-9.35
11.93
34.36
55.52
73.09
85.62
93.36
98.75
105.95
118.89
138.76
162.17
181.37
187.24
173.63
140.97
96.88
53.42
21.85
8.20
11.36
24.41
38.24
45.07
40.38
23.14
-5.00
-40.71
-79.43
-116.01
-145.70
-165.08
-172.95
-170.56
-160.83
-147.24
-132.99
-120.34
-110.61
-104.19
-100.61
-98.70
-96.89
-93.78
-88.61
-81.53
-73.15
-64.09
-54.49
-43.86
-31.47
-16.89
-0.42
16.79
32.93
46.00
54.23
56.49
52.58
43.33
30.53
16.51
3.64
-6.32
-12.56
-15.32
-15.58
-14.53
-13.19
-12.14
-11.51
-11.22
-11.08
-10.96
-10.82
-10.66
-10.49
-10.35
-10.22
-10.11
-9.96
-9.74
-9.46
-9.12
-8.77
-8.44
-8.12
-7.78
-7.34
-6.79
-6.13
-5.46
-4.89
-4.50
-4.31
-4.26
-4.27
-4.21
-4.01
-3.68
-3.25
-2.78
-2.31
-1.83
-1.32
-0.78
-0.23
0.26
0.62
0.84
0.95
1.03
1.20
1.48
1.84
2.18
2.38
2.39
2.25
2.09
2.06
2.24
2.63
3.13
3.55
3.73
3.57
3.16
2.67
2.40
2.60
3.38
4.64
6.13
7.52
8.50
8.83
8.38
7.10
5.04
2.38
-0.58
-3.48
-6.03
-8.10
-9.77
-11.26
-12.74
-14.27
-15.70
-16.87
-17.71
-18.34
-18.99
-19.82
-20.78
-21.58
-21.88
-21.59
-20.97
-20.43
-20.18
-19.95
-19.12
-17.07
-13.69
-9.39
-4.81
-0.35
4.07
8.80
13.95
18.97
22.82
24.52
23.77
21.23
18.15
15.67
14.22
13.47
12.72
11.44
9.66
7.78
6.31
5.54
5.39
5.56
5.70
5.61
5.24
4.70
4.15
3.72
3.43
3.21
2.96
2.59
2.10
1.61
1.21
0.99
0.92
0.91
0.83
0.60
0.21
-0.26
-0.71
-1.05
-1.24
-1.32
-1.35
-1.41
-1.56
-1.83
-2.19
-2.60
-3.00
-3.37
-3.70
-4.02
-4.39
-4.81
-5.28
-5.73
-6.11
-6.37
-6.53
-6.64
-6.77
-6.98
-7.32
-7.77
-8.24
-8.57
-8.54
-7.90
-6.47
-4.14
-0.99
2.76
6.77
10.68
14.14
16.86
18.69
19.55
19.45
18.54
17.06
15.31
13.56
12.03
10.73
9.52
8.20
6.60
4.73
2.77
1.00
-0.36
-1.21
-1.66
-1.94
-2.25
-2.64
-3.05
-3.33
-3.35
-3.07
-2.59
-2.03
-1.55
-1.26
-1.19
-1.34
-1.65
-2.05
-2.45
-2.76
-2.89
-2.81
-2.52
-2.10
-1.68
-1.38
-1.27
-1.35
-1.53
-1.67
-1.67
-1.45
-1.06
-0.59
-0.18
0.04
0.00
-0.28
-0.74
-1.25
-1.68
-1.93
-1.91
-1.63
-1.14
-0.60
-0.18
-0.03
-0.18
-0.56
-1.01
-1.39
-1.59
-1.63
-1.56
-1.44
-1.31
-1.19
-1.10
-1.08
-1.16
-1.32
-1.49
-1.57
-1.46
-1.18
-0.77
-0.37
-0.06
0.09
0.11
0.06
0.03
0.08
0.21
0.38
0.51
0.55
0.49
0.36
0.21
0.04
-0.16
-0.44
-0.81
-1.24
-1.62
-1.86
-1.87
-1.65
-1.30
-0.92
-0.63
-0.49
-0.49
-0.58
-0.71
-0.84
-0.95
-1.05
-1.07
-0.95
-0.58
0.06
0.91
1.79
2.52
2.94
3.02
2.84
2.53
2.24
2.07
2.06
2.17
2.34
2.47
2.46
2.24
1.79
1.19
0.51
-0.12
-0.66
-1.11
-1.50
-1.89
-2.24
-2.51
-2.59
-2.45
-2.11
-1.67
-1.24
-0.95
-0.88
-1.09
-1.59
-2.35
-3.29
-4.27
-5.11
-5.60
-5.63
-5.18
-4.38
-3.46
-2.60
-1.88
-1.22
-0.33
1.10
3.25
6.07
9.22
12.15
14.31
15.37
15.24
14.11
12.24
9.86
7.14
4.21
1.30
-1.25
-3.04
-3.83
-3.63
-2.77
-1.75
-1.04
-0.87
-1.17
-1.67
-2.07
-2.17
-1.97
-1.57
-1.10
-0.64
-0.19
0.29
0.79
1.26
1.60
1.71
1.61
1.37
1.13
1.00
1.03
1.22
1.47
1.71
1.87
1.92
1.84
1.66
1.43
1.19
0.97
0.79
0.64
0.45
0.21
-0.08
-0.40
-0.70
-1.00
-1.33
-1.72
-2.21
-2.74
-3.21
-3.51
-3.54
-3.28
-2.79
-2.18
-1.61
-1.18
-0.91
-0.79
-0.78
-0.84
-0.97
-1.15
-1.34
-1.46
-1.41
-1.15
-0.75
-0.35
-0.14
-0.28
-0.81
-1.67
-2.71
-3.74
-4.58
-5.07
-5.16
-4.85
-4.20
-3.32
-2.30
-1.22
-0.20
0.65
1.22
1.47
1.46
1.31
1.19
1.19
1.28
1.38
1.43
1.43
1.51
1.75
2.17
2.66
3.05
3.22
3.18
3.03
2.85
2.71
2.58
2.41
2.21
2.03
1.92
1.86
1.75
1.49
1.02
0.40
-0.27
-0.87
-1.37
-1.81
-2.22
-2.60
-2.88
-2.97
-2.83
-2.48
-2.01
-1.56
-1.21
-1.00
-0.92
-0.91
-0.94
-0.98
-0.99
-0.96
-0.86
-0.70
-0.49
-0.28
-0.11
0.01
0.10
0.17
0.23
0.30
0.38
0.49
0.60
0.69
0.69
0.55
0.26
-0.11
-0.45
-0.65
-0.66
-0.51
-0.29
-0.09
0.06
0.14
0.15
0.06
-0.16
-0.52
-0.95
-1.31
-1.47
-1.33
-0.95
-0.48
-0.10
0.01
-0.18
-0.59
-1.02
-1.29
-1.24
-0.86
-0.23
0.49
1.14
1.62
1.90
2.01
2.00
1.87
1.60
1.17
0.65
0.14
-0.18
-0.17
0.20
0.84
1.56
2.13
2.40
2.32
1.97
1.47
0.93
0.43
-0.03
-0.42
-0.74
-0.97
-1.10
-1.17
-1.25
-1.39
-1.63
-1.93
-2.21
-2.38
-2.41
-2.33
-2.21
-2.19
-2.33
-2.62
-2.97
-3.28
-3.49
-3.70
-4.06
-4.80
-6.02
-7.67
-9.49
-11.13
-12.29
-12.88
-13.09
-13.36
-14.23
-16.14
-19.27
-23.41
-27.97
-32.20
-35.54
-37.90
-39.93
-42.88
-48.18
-56.86
-68.96
-83.38
-98.14
-111.12
-120.86
-127.06
-130.68
-133.59
-137.84
-144.85
-154.62
-165.33
-173.46
-174.63
-164.80
-141.56
-104.84
-57.16
-3.00
52.15
103.04
145.70
178.19
200.69
215.14
224.10
229.55
231.91
230.02
222.06
207.07
186.09
162.23
139.48
121.14
108.58
101.21
97.39
95.50
94.64
94.57
95.20
95.95
95.73
93.30
87.81
79.10
67.64
54.18
39.59
24.67
10.31
-2.66
-13.59
-22.26
-28.95
-34.29
-38.84
-42.79
-45.99
-48.12
-48.97
-48.63
-47.37
-45.47
-42.96
-39.62
-35.28
-30.08
-24.58
-19.54
-15.55
-12.64
-10.23
-7.37
-3.25
2.44
9.21
15.86
20.77
22.48
20.24
14.52
7.04
0.35
-2.99
-1.62
3.91
10.93
15.58
14.28
5.25
-10.66
-30.35
-49.67
-65.00
-74.34
-77.53
-75.72
-70.47
-63.18
-54.86
-46.43
-38.96
-33.71
-31.86
-34.02
-40.00
-48.81
-58.95
-68.90
-77.61
-84.71
-90.59
-96.01
-101.71
-107.96
-114.44
-120.38
-125.00
-127.97
-129.65
-131.04
-133.45
-138.03
-145.24
-154.36
-163.27
-168.58
-166.25
-152.67
-125.99
-87.06
-39.60
10.65
57.53
96.26
124.45
142.22
151.35
154.16
152.60
148.04
141.43
133.74
126.08
119.44
114.38
110.68
107.45
103.55
98.21
91.35
83.61
75.98
69.41
64.35
60.60
57.48
54.17
50.10
45.21
39.95
34.99
30.97
28.12
26.23
24.77
23.19
21.17
18.72
16.10
13.67
11.68
10.20
9.12
8.27
7.47
6.63
5.73
4.80
3.91
3.12
2.48
2.01
1.69
1.51
1.43
1.38
1.32
1.23
1.08
0.88
0.67
0.49
0.36
0.32
0.35
0.46
0.65
0.94
1.32
1.79
2.29
2.74
3.07
3.29
3.44
3.64
4.01
4.60
5.36
6.15
6.83
7.29
7.58
7.82
8.25
9.06
10.29
11.85
13.46
14.83
15.75
16.26
16.65
17.35
18.75
21.04
24.05
27.36
30.50
33.12
35.21
37.07
39.16
41.85
45.27
49.23
53.25
56.78
59.39
60.89
61.40
61.37
61.53
62.88
66.47
73.10
82.56
93.02
100.87
101.45
90.82
67.69
34.67
-2.23
-35.49
-58.82
-69.23
-67.41
-56.67
-41.38
-25.84
-14.07
-9.75
-15.80
-33.24
-60.09
-91.26
-120.09
-140.92
-151.26
-152.54
-148.91
-144.76
-142.46
-141.46
-139.13
-132.70
-120.85
-104.32
-85.27
-65.95
-47.70
-30.70
-14.53
0.83
14.50
24.82
30.24
30.32
26.03
19.43
12.89
8.63
8.49
14.01
26.19
44.96
68.67
94.22
117.95
136.94
150.12
158.55
164.74
171.15
178.70
185.91
189.31
184.89
170.13
145.54
114.54
81.88
51.29
23.79
-2.20
-29.04
-57.44
-85.16
-107.78
-121.16
-123.90
-118.27
-108.96
-100.62
-95.59
-93.34
-91.59
-88.05
-81.89
-73.96
-66.10
-59.95
-56.18
-54.33
-53.11
-51.19
-47.84
-43.15
-37.89
-33.09
-29.51
-27.30
-26.03
-24.96
-23.40
-21.10
-18.22
-15.26
-12.73
-10.91
-9.74
-8.94
-8.15
-7.14
-5.91
-4.64
-3.55
-2.81
-2.43
-2.29
-2.19
-1.98
-1.62
-1.15
-0.67
-0.27
-0.01
0.11
0.11
0.03
-0.09
-0.21
-0.30
-0.35
-0.36
-0.38
-0.41
-0.45
-0.46
-0.39
-0.22
0.03
0.29
0.46
0.49
0.41
0.28
0.19
0.19
0.25
0.36
0.48
0.56
0.60
0.56
0.45
0.27
0.06
-0.11
-0.19
-0.17
-0.08
-0.01
-0.02
-0.10
-0.21
-0.24
-0.12
0.20
0.67
1.16
1.55
1.70
1.56
1.18
0.66
0.15
-0.26
-0.56
-0.75
-0.88
-0.98
-1.04
-1.06
-1.06
-1.04
-1.03
-0.97
-0.84
-0.63
-0.38
-0.18
-0.12
-0.21
-0.40
-0.57
-0.63
-0.59
-0.52
-0.50
-0.53
-0.56
-0.47
-0.20
0.21
0.65
0.96
1.08
1.07
1.06
1.20
1.53
2.00
2.47
2.80
2.91
2.84
2.65
2.44
2.28
2.15
1.96
1.63
1.07
0.29
-0.63
-1.53
-2.22
-2.57
-2.54
-2.22
-1.77
-1.36
-1.10
-1.03
-1.08
-1.15
-1.17
-1.08
-0.89
-0.61
-0.27
0.10
0.46
0.76
0.93
0.92
0.71
0.39
0.09
-0.07
-0.03
0.16
0.34
0.37
0.17
-0.20
-0.59
-0.83
-0.81
-0.56
-0.18
0.16
0.35
0.34
0.19
-0.00
-0.13
-0.13
-0.04
0.08
0.13
0.07
-0.12
-0.38
-0.62
-0.78
-0.82
-0.74
-0.57
-0.33
-0.10
0.09
0.17
0.14
0.03
-0.09
-0.16
-0.16
-0.12
-0.10
-0.16
-0.30
-0.44
-0.50
-0.42
-0.21
0.02
0.17
0.13
-0.07
-0.35
-0.59
-0.72
-0.76
-0.77
-0.80
-0.87
-0.91
-0.84
-0.67
-0.44
-0.29
-0.30
-0.49
-0.80
-1.11
-1.34
-1.43
-1.36
-1.12
-0.69
-0.10
0.61
1.33
1.94
2.38
2.66
2.79
2.81
2.73
2.54
2.22
1.80
1.33
0.88
0.47
0.10
-0.27
-0.65
-1.02
-1.30
-1.42
-1.32
-1.04
-0.66
-0.30
-0.07
-0.02
-0.12
-0.25
-0.30
-0.22
-0.02
0.23
0.43
0.53
0.49
0.32
0.07
-0.23
-0.51
-0.73
-0.83
-0.77
-0.56
-0.28
-0.05
0.01
-0.14
-0.45
-0.84
-1.18
-1.40
-1.47
-1.43
-1.36
-1.37
-1.49
-1.72
-1.99
-2.21
-2.31
-2.27
-2.13
-1.99
-1.95
-2.11
-2.48
-2.97
-3.43
-3.71
-3.75
-3.57
-3.29
-3.06
-2.99
-3.10
-3.32
-3.51
-3.47
-3.04
-2.14
-0.79
0.85
2.52
3.91
4.76
4.98
4.62
3.86
2.93
2.02
1.29
0.76
0.42
0.16
-0.17
-0.68
-1.51
-2.66
-4.08
-5.67
-7.33
-8.93
-10.40
-11.64
-12.58
-13.20
-13.56
-13.83
-14.21
-14.90
-15.99
-17.42
-18.99
-20.47
-21.70
-22.72
-23.78
-25.26
-27.58
-30.95
-35.30
-40.24
-45.21
-49.72
-53.52
-56.76
-59.92
-63.59
-68.24
-73.91
-80.24
-86.48
-91.84
-95.85
-98.56
-100.69
-103.54
-108.74
-117.54
-130.13
-144.94
-158.54
-166.31
-163.78
-147.91
-117.91
-75.49
-24.25
30.99
84.93
132.56
170.00
195.10
207.85
209.90
203.75
191.82
175.90
157.42
137.98
119.57
104.31
93.43
86.75
82.64
78.98
74.31
68.50
62.50
57.51
54.15
52.07
50.30
47.96
44.74
41.00
37.52
35.11
34.11
34.36
35.38
36.65
37.85
38.99
40.30
42.07
44.50
47.57
51.14
54.98
58.93
62.90
66.93
71.17
75.74
80.75
86.21
92.02
98.11
104.43
110.93
117.63
124.52
131.70
139.29
147.45
156.03
164.30
170.70
172.83
167.98
153.82
129.13
94.20
50.77
1.64
-49.74
-99.63
-144.22
-180.01
-204.32
-215.93
-215.63
-206.13
-191.40
-175.42
-161.09
-149.61
-140.49
-132.41
-123.98
-114.51
-104.16
-93.65
-83.74
-74.84
-66.90
-59.61
-52.78
-46.59
-41.47
-37.82
-35.54
-33.94
-31.92
-28.51
-23.46
-17.48
-11.97
-8.33
-7.23
-8.25
-10.14
-11.41
-11.13
-9.23
-6.43
-3.66
-1.47
0.16
1.62
3.19
4.72
5.64
5.44
4.13
2.40
1.34
1.74
3.56
5.87
7.37
7.19
5.40
2.96
1.15
0.85
2.09
4.15
5.99
6.81
6.33
4.81
2.81
0.98
-0.09
0.06
1.67
4.65
8.43
12.08
14.47
14.72
12.52
8.31
3.06
-2.03
-5.99
-8.31
-8.99
-8.39
-7.04
-5.45
-4.04
-3.11
-2.86
-3.36
-4.51
-6.03
-7.57
-8.76
-9.40
-9.46
-9.10
-8.54
-7.97
-7.53
-7.21
-6.99
-6.76
-6.48
-6.08
-5.56
-4.95
-4.30
-3.68
-3.15
-2.77
-2.53
-2.40
-2.31
-2.23
-2.12
-2.00
-1.90
-1.83
-1.79
-1.75
-1.71
-1.67
-1.61
-1.51
-1.33
-1.09
-0.83
-0.63
-0.56
-0.64
-0.81
-0.98
-1.07
-1.07
-1.02
-0.99
-1.02
-1.11
-1.20
-1.27
-1.28
-1.26
-1.23
-1.20
-1.21
-1.28
-1.42
-1.62
-1.86
-2.08
-2.22
-2.24
-2.16
-2.02
-1.82
-1.59
-1.29
-0.91
-0.47
0.01
0.44
0.76
0.92
0.93
0.87
0.80
0.76
0.77
0.76
0.72
0.65
0.62
0.70
0.97
1.41
1.98
2.56
2.97
3.08
2.77
2.04
1.01
-0.05
-0.85
-1.18
-0.98
-0.42
0.23
0.74
0.97
0.96
0.83
0.68
0.54
0.40
0.23
0.06
-0.04
-0.01
0.18
0.48
0.78
0.97
0.99
0.85
0.64
0.49
0.50
0.70
1.05
1.43
1.70
1.75
1.54
1.12
0.58
0.05
-0.35
-0.56
-0.57
-0.45
-0.27
-0.11
-0.02
0.00
-0.03
-0.11
-0.21
-0.30
-0.34
-0.28
-0.08
0.22
0.56
0.84
0.98
0.99
0.93
0.89
0.87
0.80
0.53
-0.03
-0.85
-1.77
-2.56
-3.06
-3.22
-3.13
-2.94
-2.74
-2.55
-2.35
-2.10
-1.84
-1.66
-1.64
-1.80
-2.06
-2.26
-2.25
-1.94
-1.35
-0.61
0.13
0.71
1.09
1.33
1.52
1.74
2.04
2.35
2.56
2.59
2.38
1.98
1.51
1.09
0.82
0.75
0.87
1.12
1.39
1.56
1.57
1.37
1.00
0.56
0.13
-0.20
-0.42
-0.53
-0.54
-0.48
-0.34
-0.13
0.13
0.39
0.62
0.75
0.77
0.68
0.51
0.29
0.06
-0.13
-0.27
-0.31
-0.24
-0.09
0.10
0.28
0.41
0.46
0.44
0.38
0.30
0.24
0.21
0.24
0.30
0.38
0.38
0.22
-0.16
-0.78
-1.58
-2.43
-3.15
-3.54
-3.48
-2.93
-2.01
-0.88
0.26
1.23
1.94
2.34
2.43
2.25
1.81
1.18
0.51
-0.03
-0.31
-0.25
0.07
0.50
0.89
1.16
1.34
1.52
1.76
2.02
2.21
2.20
1.97
1.60
1.24
0.99
0.87
0.79
0.62
0.29
-0.17
-0.66
-1.03
-1.16
-1.05
-0.75
-0.39
-0.11
0.01
-0.05
-0.24
-0.42
-0.50
-0.46
-0.39
-0.42
-0.70
-1.22
-1.87
-2.43
-2.73
-2.69
-2.38
-1.96
-1.56
-1.24
-0.98
-0.69
-0.32
0.10
0.41
0.47
0.16
-0.50
-1.40
-2.34
-3.13
-3.68
-3.96
-4.03
-4.00
-3.98
-4.03
-4.16
-4.28
-4.30
-4.10
-3.62
-2.87
-1.92
-0.87
0.17
1.12
1.92
2.54
2.98
3.23
3.35
3.38
3.36
3.29
3.12
2.82
2.36
1.78
1.12
0.40
-0.35
-1.12
-1.85
-2.45
-2.81
-2.88
-2.67
-2.29
-1.89
-1.58
-1.40
-1.33
-1.29
-1.25
-1.17
-1.10
-1.06
-1.10
-1.16
-1.16
-0.98
-0.50
0.29
1.32
2.40
3.33
3.95
4.22
4.19
4.02
3.83
3.67
3.55
3.42
3.22
2.96
2.64
2.26
1.82
1.35
0.88
0.49
0.26
0.23
0.40
0.70
1.01
1.21
1.27
1.22
1.15
1.17
1.36
1.69
2.04
2.26
2.26
2.00
1.56
1.05
0.61
0.30
0.14
0.15
0.30
0.57
0.92
1.24
1.45
1.48
1.32
1.03
0.72
0.48
0.34
0.28
0.22
0.11
-0.09
-0.35
-0.65
-0.93
-1.16
-1.35
-1.49
-1.61
-1.70
-1.71
-1.59
-1.32
-0.91
-0.45
-0.04
0.19
0.23
0.12
-0.04
-0.12
-0.09
0.00
0.06
-0.00
-0.19
-0.42
-0.60
-0.65
-0.59
-0.51
-0.52
-0.64
-0.84
-1.01
-1.09
-1.08
-1.08
-1.20
-1.50
-1.95
-2.41
-2.69
-2.69
-2.42
-2.01
-1.63
-1.43
-1.45
-1.63
-1.85
-1.99
-1.99
-1.83
-1.54
-1.14
-0.62
-0.01
0.65
1.27
1.75
2.01
2.03
1.87
1.64
1.44
1.32
1.26
1.22
1.15
1.03
0.91
0.84
0.87
1.01
1.22
1.44
1.58
1.57
1.41
1.15
0.88
0.68
0.58
0.56
0.56
0.55
0.55
0.60
0.72
0.90
1.09
1.20
1.19
1.02
0.74
0.40
0.03
-0.32
-0.63
-0.87
-1.01
-1.06
-1.03
-0.94
-0.82
-0.67
-0.50
-0.29
-0.07
0.13
0.26
0.29
0.21
0.03
-0.21
-0.47
-0.68
-0.82
-0.86
-0.82
-0.69
-0.48
-0.22
0.07
0.34
0.52
0.57
0.53
0.42
0.34
0.35
0.44
0.57
0.66
0.63
0.43
0.06
-0.44
-1.02
-1.58
-2.03
-2.26
-2.21
-1.88
-1.37
-0.81
-0.36
-0.14
-0.19
-0.49
-0.89
-1.30
-1.59
-1.74
-1.76
-1.68
-1.57
-1.47
-1.40
-1.33
-1.21
-0.96
-0.50
0.16
0.92
1.64
2.16
2.37
2.30
2.05
1.75
1.51
1.36
1.27
1.20
1.14
1.10
1.08
1.04
0.94
0.74
0.43
0.06
-0.27
-0.48
-0.54
-0.45
-0.27
-0.07
0.09
0.18
0.22
0.22
0.22
0.22
0.24
0.28
0.35
0.45
0.60
0.78
0.93
1.00
0.95
0.75
0.45
0.13
-0.13
-0.28
-0.32
-0.31
-0.30
-0.36
-0.50
-0.69
-0.87
-0.96
-0.96
-0.90
-0.80
-0.67
-0.46
-0.14
0.32
0.83
1.25
1.40
1.19
0.69
0.06
-0.47
-0.72
-0.63
-0.26
0.26
0.80
1.27
1.59
1.72
1.65
1.36
0.90
0.36
-0.13
-0.42
-0.43
-0.16
0.27
0.69
0.96
1.00
0.82
0.48
0.09
-0.22
-0.39
-0.38
-0.19
0.09
0.39
0.60
0.70
0.70
0.66
0.65
0.71
0.84
1.00
1.14
1.22
1.19
1.04
0.74
0.31
-0.21
-0.74
-1.21
-1.54
-1.70
-1.68
-1.51
-1.25
-1.01
-0.87
-0.88
-1.06
-1.32
-1.56
-1.69
-1.62
-1.37
-0.97
-0.54
-0.19
0.02
0.09
0.06
-0.01
-0.07
-0.12
-0.17
-0.25
-0.34
-0.41
-0.40
-0.27
-0.03
0.26
0.52
0.68
0.72
0.66
0.53
0.39
0.25
0.15
0.12
0.17
0.30
0.49
0.71
0.90
1.03
1.06
0.95
0.70
0.34
-0.08
-0.45
-0.67
-0.73
-0.65
-0.53
-0.47
-0.48
-0.53
-0.54
-0.49
-0.40
-0.33
-0.29
-0.26
-0.17
-0.02
0.14
0.22
0.15
-0.05
-0.29
-0.40
-0.29
0.06
0.55
1.03
1.37
1.46
1.29
0.86
0.25
-0.43
-1.01
-1.34
-1.34
-1.02
-0.52
-0.01
0.34
0.43
0.28
-0.01
-0.26
-0.36
-0.25
0.04
0.42
0.78
1.04
1.13
1.06
0.86
0.60
0.36
0.21
0.19
0.25
0.32
0.29
0.11
-0.19
-0.52
-0.75
-0.83
-0.76
-0.59
-0.40
-0.24
-0.16
-0.15
-0.18
-0.25
-0.30
-0.27
-0.12
0.16
0.46
0.67
0.63
0.30
-0.26
-0.87
-1.36
-1.60
-1.54
-1.24
-0.82
-0.39
-0.01
0.26
0.45
0.58
0.70
0.83
0.96
1.05
1.08
1.03
0.95
0.90
0.89
0.92
0.90
0.78
0.54
0.28
0.10
0.07
0.20
0.40
0.55
0.57
0.42
0.17
-0.08
-0.27
-0.37
-0.37
-0.32
-0.26
-0.21
-0.18
-0.21
-0.36
-0.69
-1.25
-1.98
-2.72
-3.29
-3.56
-3.57
-3.50
-3.59
-4.01
-4.79
-5.76
-6.73
-7.55
-8.25
-8.94
-9.80
-10.94
-12.40
-14.11
-16.03
-18.12
-20.36
-22.72
-25.14
-27.61
-30.13
-32.82
-35.87
-39.42
-43.51
-48.01
-52.74
-57.49
-62.21
-67.01
-72.07
-77.52
-83.34
-89.34
-95.29
-101.06
-106.71
-112.42
-118.36
-124.55
-130.93
-137.45
-144.34
-151.91
-160.08
-167.85
-172.91
-172.04
-162.07
-141.01
-108.75
-66.84
-17.89
35.23
89.58
141.93
188.68
226.17
251.58
264.02
264.96
257.75
246.36
234.23
223.50
215.17
209.53
206.41
205.10
204.10
201.23
194.29
181.97
164.58
143.99
122.87
103.84
88.49
76.94
67.63
57.63
43.44
22.09
-7.65
-44.62
-85.52
-126.03
-162.49
-193.14
-218.34
-239.62
-257.97
-272.66
-281.01
-279.43
-264.94
-236.25
-194.15
-141.27
-81.54
-19.73
38.95
89.30
126.98
149.37
156.44
150.98
137.99
123.28
111.82
106.40
107.17
112.18
118.44
123.18
124.90
123.61
120.68
118.38
119.21
125.13
136.77
152.58
168.42
178.04
174.86
154.50
117.00
67.62
15.31
-30.48
-63.24
-81.45
-88.21
-88.96
-88.53
-89.29
-90.93
-91.80
-90.61
-87.39
-83.30
-79.69
-77.06
-74.70
-71.23
-65.62
-57.90
-49.27
-41.61
-36.45
-34.26
-34.21
-34.62
-33.80
-30.79
-25.75
-19.78
-14.32
-10.40
-8.25
-7.23
-6.28
-4.50
-1.59
2.04
5.48
7.90
8.90
8.71
8.07
7.82
8.58
10.52
13.21
15.80
17.16
16.23
12.44
5.95
-2.25
-10.65
-17.76
-22.63
-25.16
-25.97
-25.98
-25.86
-25.84
-25.73
-25.27
-24.49
-23.73
-23.52
-24.20
-25.76
-27.80
-29.83
-31.45
-32.49
-32.87
-32.48
-31.08
-28.42
-24.49
-19.67
-14.80
-10.91
-8.92
-9.37
-12.24
-17.02
-22.86
-28.74
-33.66
-36.96
-38.42
-38.35
-37.52
-36.86
-37.24
-39.44
-44.16
-51.74
-61.63
-71.71
-78.42
-77.73
-66.92
-46.33
-19.72
6.90
27.64
39.02
40.90
35.54
25.79
13.68
0.48
-12.15
-21.19
-22.61
-13.28
6.90
34.04
61.47
82.56
93.39
94.05
87.91
79.30
71.40
65.24
60.15
55.08
49.63
44.27
39.87
36.93
35.19
33.90
32.13
29.31
25.55
21.41
17.63
14.74
12.88
11.77
10.87
9.71
8.02
5.87
3.57
1.46
-0.18
-1.27
-1.98
-2.56
-3.29
-4.31
-5.65
-7.22
-8.87
-10.47
-11.84
-12.79
-13.08
-12.48
-10.84
-8.18
-4.78
-1.09
2.43
5.37
7.58
9.10
10.10
10.82
11.38
11.85
12.20
12.42
12.55
12.66
12.86
13.19
13.61
14.04
14.37
14.53
14.51
14.34
14.08
13.76
13.38
12.92
12.39
11.80
11.23
10.73
10.31
9.90
9.37
8.55
7.36
5.82
4.08
2.33
0.75
-0.58
-1.68
-2.61
-3.44
-4.14
-4.66
-4.95
-5.03
-4.98
-4.93
-4.95
-5.03
-5.08
-5.00
-4.77
-4.46
-4.23
-4.22
-4.47
-4.90
-5.30
-5.48
-5.35
-4.95
-4.43
-3.94
-3.57
-3.32
-3.12
-2.90
-2.63
-2.35
-2.09
-1.88
-1.71
-1.54
-1.37
-1.19
-1.05
-0.98
-0.97
-0.99
-0.99
-0.94
-0.82
-0.62
-0.41
-0.22
-0.12
-0.13
-0.27
-0.49
-0.73
-0.92
-0.99
-0.89
-0.65
-0.33
-0.03
0.17
0.24
0.21
0.14
0.11
0.13
0.18
0.21
0.18
0.07
-0.09
-0.30
-0.53
-0.77
-1.02
-1.21
-1.29
-1.21
-0.97
-0.61
-0.22
0.13
0.38
0.50
0.53
0.54
0.59
0.73
0.93
1.12
1.23
1.18
0.97
0.64
0.26
-0.07
-0.29
-0.38
-0.36
-0.27
-0.18
-0.10
-0.03
0.08
0.27
0.58
0.99
1.41
1.78
2.05
2.23
2.34
2.38
2.33
2.17
1.92
1.64
1.44
1.39
1.50
1.77
2.16
2.67
3.30
4.06
4.88
5.61
6.08
6.24
6.16
6.15
6.54
7.54
9.09
10.84
12.29
13.10
13.20
12.87
12.60
12.84
13.83
15.60
17.99
20.65
22.98
24.10
23.04
19.14
12.46
4.02
-4.52
-11.51
-15.97
-17.96
-18.33
-18.16
-18.12
-18.28
-18.29
-17.80
-16.83
-15.73
-14.93
-14.62
-14.63
-14.55
-14.02
-12.85
-11.17
-9.33
-7.74
-6.68
-6.24
-6.30
-6.58
-6.75
-6.58
-5.97
-5.04
-4.04
-3.24
-2.84
-2.85
-3.10
-3.37
-3.45
-3.24
-2.78
-2.21
-1.63
-1.15
-0.80
-0.55
-0.36
-0.21
-0.08
-0.00
0.04
0.08
0.16
0.33
0.59
0.90
1.18
1.42
1.68
2.10
2.83
3.93
5.24
6.51
7.47
8.05
8.43
8.98
10.01
11.65
13.67
15.56
16.83
17.22
16.95
16.67
17.13
18.82
21.67
25.04
27.94
29.62
29.84
29.11
28.42
28.77
30.73
34.37
39.36
45.08
50.50
54.03
53.73
47.97
36.37
20.52
3.80
-9.76
-17.27
-18.41
-15.56
-12.56
-12.76
-17.43
-25.36
-33.90
-40.47
-43.83
-44.33
-43.24
-41.73
-40.26
-38.54
-35.92
-32.11
-27.53
-23.09
-19.74
-17.95
-17.53
-17.69
-17.54
-16.32
-13.90
-10.64
-7.27
-4.50
-2.73
-1.88
-1.42
-0.71
0.77
3.09
5.97
8.88
11.34
13.09
14.23
15.08
16.09
17.65
20.01
23.24
27.18
31.47
35.63
39.17
41.78
43.54
44.93
46.72
49.72
54.36
60.54
67.54
74.30
79.77
83.33
84.91
84.85
83.72
81.94
79.67
76.72
72.52
65.93
55.33
39.04
16.13
-12.60
-44.28
-74.47
-98.61
-113.69
-119.26
-117.32
-111.10
-103.48
-96.02
-88.96
-81.94
-74.90
-68.40
-63.29
-60.14
-58.68
-57.95
-56.72
-54.17
-50.23
-45.59
-41.34
-38.43
-37.24
-37.46
-38.32
-38.89
-38.57
-37.30
-35.55
-34.07
-33.57
-34.36
-36.32
-38.96
-41.69
-44.05
-45.95
-47.61
-49.45
-51.91
-55.26
-59.61
-64.92
-71.08
-77.86
-84.96
-92.00
-98.57
-104.55
-110.26
-116.53
-124.25
-133.62
-143.37
-150.55
-151.12
-141.23
-118.51
-82.72
-35.61
19.74
79.53
139.57
195.41
242.64
277.64
298.69
306.71
305.16
298.96
292.93
290.33
292.07
296.76
301.24
301.42
293.35
274.05
242.12
198.11
144.35
84.67
23.88
-32.78
-80.42
-115.38
-136.18
-143.90
-141.83
-134.34
-125.40
-117.45
-111.12
-105.86
-100.88
-95.78
-90.69
-85.92
-81.63
-77.61
-73.54
-69.19
-64.59
-60.05
-55.95
-52.52
-49.72
-47.27
-44.78
-41.90
-38.52
-34.74
-30.88
-27.28
-24.22
-21.75
-19.75
-17.96
-16.14
-14.15
-12.04
-10.01
-8.33
-7.17
-6.54
-6.24
-5.95
-5.39
-4.45
-3.25
-2.09
-1.31
-1.10
-1.41
-1.98
-2.47
-2.56
-2.13
-1.27
-0.21
0.76
1.45
1.76
1.81
1.78
1.88
2.21
2.70
3.14
3.31
3.09
2.52
1.79
1.15
0.80
0.83
1.18
1.73
2.38
3.02
3.65
4.26
4.88
5.52
6.15
6.68
6.96
6.81
6.05
4.56
2.32
-0.60
-4.02
-7.71
-11.43
-14.99
-18.27
-21.27
-23.99
-26.40
-28.27
-29.21
-28.73
-26.42
-22.25
-16.65
-10.53
-5.01
-1.12
0.54
0.05
-1.95
-4.44
-6.44
-7.40
-7.31
-6.60
-5.89
-5.59
-5.83
-6.49
-7.48
-8.97
-11.40
-15.24
-20.66
-27.26
-34.15
-40.22
-44.62
-47.15
-48.27
-48.92
-50.14
-52.69
-56.78
-62.09
-67.98
-73.73
-78.82
-83.04
-86.56
-89.85
-93.66
-98.98
-106.67
-116.96
-128.69
-138.94
-143.22
-136.71
-115.98
-80.52
-33.45
19.23
70.40
113.94
146.20
166.42
176.09
177.86
174.47
168.21
160.74
153.22
146.41
140.70
136.15
132.68
129.99
127.82
125.92
124.10
122.23
120.35
118.54
116.83
114.96
112.25
107.78
100.90
91.75
81.31
70.72
60.34
49.18
35.21
16.65
-6.53
-31.99
-55.74
-73.81
-84.10
-87.17
-85.65
-82.80
-80.98
-80.99
-82.32
-84.12
-85.85
-87.52
-89.44
-91.74
-94.16
-96.04
-96.65
-95.63
-93.27
-90.57
-88.96
-89.77
-93.57
-99.73
-106.28
-110.42
-109.40
-101.40
-86.26
-65.41
-41.50
-17.44
4.33
22.22
35.58
44.33
48.69
49.06
46.03
40.52
33.75
27.08
21.64
18.11
16.60
16.72
17.94
19.92
22.68
26.47
31.53
37.71
44.31
50.22
54.31
55.86
54.79
51.62
47.21
42.40
37.78
33.69
30.25
27.53
25.50
24.09
23.09
22.20
21.12
19.66
17.80
15.73
13.68
11.89
10.45
9.35
8.46
7.61
6.67
5.61
4.49
3.46
2.75
2.51
2.83
3.60
4.58
5.49
6.10
6.34
6.28
6.11
5.96
5.91
5.91
5.86
5.69
5.43
5.14
4.89
4.72
4.57
4.38
4.12
3.82
3.58
3.47
3.47
3.51
3.46
3.27
2.95
2.61
2.31
2.12
2.00
1.90
1.78
1.65
1.54
1.49
1.49
1.48
1.40
1.22
0.97
0.73
0.57
0.48
0.43
0.32
0.10
-0.22
-0.54
-0.74
-0.73
-0.51
-0.17
0.14
0.32
0.31
0.15
-0.06
-0.22
-0.31
-0.37
-0.45
-0.63
-0.88
-1.11
-1.23
-1.17
-0.93
-0.61
-0.30
-0.08
0.04
0.11
0.24
0.46
0.82
1.23
1.62
1.85
1.90
1.77
1.56
1.35
1.19
1.06
0.93
0.78
0.62
0.51
0.51
0.63
0.80
0.92
0.94
0.83
0.66
0.51
0.47
0.52
0.60
0.61
0.47
0.18
-0.16
-0.43
-0.50
-0.34
-0.00
0.38
0.67
0.74
0.55
0.14
-0.36
-0.81
-1.09
-1.19
-1.12
-0.96
-0.81
-0.73
-0.75
-0.88
-1.09
-1.32
-1.51
-1.64
-1.69
-1.66
-1.55
-1.36
-1.11
-0.81
-0.50
-0.28
-0.21
-0.31
-0.52
-0.75
-0.86
-0.79
-0.54
-0.19
0.18
0.48
0.69
0.80
0.85
0.84
0.82
0.77
0.70
0.62
0.54
0.47
0.41
0.31
0.16
-0.06
-0.31
-0.49
-0.55
-0.44
-0.22
0.03
0.23
0.34
0.35
0.29
0.16
-0.01
-0.24
-0.48
-0.67
-0.73
-0.62
-0.36
-0.04
0.22
0.35
0.32
0.19
0.03
-0.11
-0.21
-0.29
-0.42
-0.59
-0.76
-0.86
-0.79
-0.54
-0.19
0.14
0.31
0.24
-0.03
-0.37
-0.62
-0.69
-0.55
-0.30
-0.05
0.11
0.12
-0.02
-0.28
-0.62
-0.96
-1.19
-1.20
-0.95
-0.47
0.10
0.55
0.77
0.71
0.51
0.34
0.31
0.43
0.61
0.72
0.69
0.53
0.35
0.23
0.20
0.22
0.23
0.21
0.15
0.12
0.12
0.13
0.13
0.08
0.02
-0.01
0.06
0.22
0.41
0.53
0.53
0.37
0.11
-0.18
-0.40
-0.50
-0.45
-0.27
-0.01
0.25
0.39
0.29
-0.07
-0.66
-1.32
-1.88
-2.19
-2.24
-2.13
-2.00
-1.97
-2.09
-2.28
-2.43
-2.45
-2.28
-1.95
-1.50
-0.97
-0.38
0.24
0.88
1.51
2.03
2.39
2.54
2.48
2.26
1.95
1.61
1.31
1.09
0.99
1.02
1.18
1.40
1.59
1.62
1.43
1.06
0.63
0.30
0.19
0.26
0.42
0.53
0.50
0.36
0.19
0.06
0.04
0.12
0.26
0.43
0.60
0.75
0.82
0.78
0.58
0.26
-0.09
-0.39
-0.56
-0.57
-0.42
-0.14
0.23
0.62
0.97
1.22
1.33
1.31
1.22
1.13
1.09
1.15
1.27
1.41
1.48
1.42
1.20
0.84
0.42
0.04
-0.20
-0.26
-0.11
0.17
0.51
0.81
0.98
0.96
0.74
0.39
0.02
-0.26
-0.38
-0.34
-0.19
0.01
0.19
0.36
0.54
0.79
1.12
1.51
1.88
2.18
2.38
2.58
2.88
3.31
3.78
4.08
3.97
3.31
2.13
0.66
-0.80
-2.03
-2.93
-3.52
-3.85
-3.97
-3.92
-3.71
-3.38
-3.00
-2.63
-2.30
-2.00
-1.72
-1.46
-1.24
-1.07
-0.93
-0.83
-0.74
-0.67
-0.64
-0.67
-0.78
-0.93
-1.08
-1.15
-1.11
-0.99
-0.85
-0.76
-0.73
-0.71
-0.59
-0.30
0.16
0.72
1.19
1.42
1.34
1.00
0.54
0.15
-0.03
0.04
0.31
0.71
1.14
1.58
2.03
2.51
3.05
3.66
4.32
4.98
5.63
6.24
6.78
7.26
7.64
7.96
8.24
8.55
8.97
9.53
10.18
10.85
11.38
11.67
11.61
11.18
10.43
9.51
8.63
8.06
8.07
8.75
10.06
11.78
13.65
15.53
17.48
19.73
22.55
26.08
30.20
34.55
38.69
42.30
45.36
48.20
51.40
55.54
60.94
67.46
74.52
81.33
87.17
91.78
95.54
99.50
105.02
113.29
124.62
138.02
150.94
159.69
160.17
148.84
123.82
85.57
37.26
-15.65
-66.46
-108.89
-138.60
-154.30
-157.70
-152.51
-142.95
-132.40
-122.81
-114.91
-108.77
-104.32
-101.43
-99.75
-98.47
-96.49
-92.85
-87.19
-79.90
-71.81
-63.81
-56.39
-49.50
-42.79
-35.88
-28.72
-21.63
-15.23
-10.17
-6.91
-5.47
-5.47
-6.25
-7.07
-7.34
-6.74
-5.27
-3.15
-0.79
1.44
3.22
4.42
5.07
5.31
5.33
5.29
5.20
4.98
4.47
3.52
2.08
0.24
-1.81
-3.88
-5.78
-7.37
-8.51
-9.10
-9.14
-8.67
-7.83
-6.78
-5.61
-4.36
-3.07
-1.85
-0.91
-0.55
-1.02
-2.43
-4.63
-7.26
-9.86
-12.03
-13.56
-14.43
-14.78
-14.81
-14.64
-14.35
-13.92
-13.31
-12.52
-11.62
-10.70
-9.84
-9.10
-8.51
-8.05
-7.69
-7.39
-7.12
-6.81
-6.46
-6.05
-5.63
-5.27
-5.05
-5.01
-5.18
-5.55
-6.08
-6.78
-7.65
-8.73
-10.01
-11.49
-13.08
-14.68
-16.16
-17.39
-18.31
-19.01
-19.76
-21.01
-23.22
-26.66
-31.15
-36.04
-40.43
-43.53
-45.15
-45.82
-46.65
-48.78
-52.84
-58.54
-64.77
-70.08
-73.39
-74.52
-74.26
-74.10
-75.63
-79.98
-87.47
-97.45
-108.07
-116.25
-118.13
-110.01
-89.78
-58.18
-19.07
21.54
57.39
84.09
100.21
107.12
107.74
105.03
101.00
96.66
92.52
89.03
86.74
86.05
86.94
88.96
91.55
94.29
97.16
100.58
105.40
112.78
124.01
140.09
161.04
185.16
208.56
225.68
230.77
220.06
193.47
154.88
110.69
67.41
29.40
-1.96
-27.41
-47.91
-63.17
-71.27
-69.85
-57.86
-36.63
-9.95
16.88
38.42
50.22
49.62
36.34
12.58
-17.22
-47.45
-72.85
-90.12
-98.56
-99.80
-96.44
-90.74
-83.90
-76.30
-68.22
-60.44
-54.14
-50.21
-48.67
-48.47
-48.03
-46.04
-42.04
-36.62
-31.03
-26.55
-23.88
-22.91
-22.86
-22.67
-21.49
-19.02
-15.56
-11.88
-8.79
-6.88
-6.29
-6.73
-7.60
-8.28
-8.36
-7.79
-6.81
-5.82
-5.15
-4.94
-5.07
-5.30
-5.36
-5.10
-4.55
-3.84
-3.19
-2.75
-2.60
-2.68
-2.86
-2.98
-2.94
-2.73
-2.46
-2.25
-2.22
-2.38
-2.66
-2.95
-3.16
-3.29
-3.40
-3.53
-3.70
-3.87
-3.98
-4.03
-4.04
-4.06
-4.11
-4.19
-4.22
-4.16
-3.94
-3.53
-2.97
-2.28
-1.52
-0.76
-0.09
0.45
0.80
1.01
1.13
1.29
1.58
2.09
2.83
3.75
4.75
5.66
6.35
6.70
6.73
6.53
6.29
6.13
6.11
6.14
6.04
5.63
4.84
3.77
2.68
1.85
1.44
1.40
1.56
1.69
1.71
1.64
1.58
1.58
1.58
1.47
1.16
0.63
-0.02
-0.64
-1.11
-1.44
-1.69
-1.94
-2.22
-2.54
-2.88
-3.20
-3.48
-3.63
-3.62
-3.40
-2.99
-2.46
-1.88
-1.32
-0.85
-0.51
-0.34
-0.36
-0.54
-0.79
-0.94
-0.86
-0.50
0.05
0.62
1.07
1.38
1.62
1.91
2.27
2.63
2.79
2.61
2.07
1.28
0.38
-0.51
-1.38
-2.27
-3.17
-4.00
-4.61
-4.91
-4.89
-4.67
-4.42
-4.24
-4.08
-3.77
-3.03
-1.65
0.54
3.56
7.28
11.41
15.52
19.05
21.44
22.25
21.21
18.34
13.95
8.59
2.96
-2.27
-6.56
-9.55
-11.16
-11.55
-10.99
-9.85
-8.49
-7.20
-6.14
-5.40
-4.97
-4.74
-4.52
-4.08
-3.23
-1.89
-0.18
1.65
3.26
4.36
4.81
4.67
4.13
3.44
2.74
2.06
1.35
0.58
-0.19
-0.79
-1.05
-0.87
-0.38
0.16
0.44
0.26
-0.32
-1.06
-1.65
-1.86
-1.67
-1.24
-0.75
-0.34
-0.05
0.15
0.31
0.46
0.62
0.78
0.91
0.94
0.81
0.50
0.04
-0.45
-0.82
-1.00
-0.96
-0.77
-0.53
-0.32
-0.20
-0.20
-0.32
-0.54
-0.80
-1.04
-1.19
-1.22
-1.19
-1.16
-1.19
-1.30
-1.46
-1.63
-1.76
-1.84
-1.88
-1.88
-1.85
-1.80
-1.70
-1.59
-1.48
-1.42
-1.43
-1.51
-1.63
-1.70
-1.64
-1.40
-0.97
-0.44
0.05
0.38
0.50
0.45
0.31
0.17
0.08
0.07
0.10
0.17
0.24
0.34
0.46
0.64
0.88
1.15
1.43
1.68
1.85
1.90
1.82
1.65
1.48
1.40
1.45
1.58
1.69
1.67
1.49
1.19
0.90
0.71
0.61
0.52
0.32
-0.06
-0.56
-1.07
-1.42
-1.54
-1.45
-1.25
-1.05
-0.91
-0.86
-0.86
-0.89
-0.92
-0.96
-1.01
-1.09
-1.22
-1.40
-1.60
-1.80
-1.94
-2.04
-2.12
-2.25
-2.46
-2.73
-2.98
-3.12
-3.14
-3.13
-3.25
-3.67
-4.44
-5.49
-6.66
-7.77
-8.66
-9.29
-9.64
-9.71
-9.58
-9.36
-9.18
-9.08
-8.94
-8.47
-7.29
-5.17
-2.24
0.94
3.55
4.83
4.47
2.69
0.23
-1.97
-3.05
-2.45
0.03
4.15
9.33
14.70
19.28
22.21
23.00
21.78
19.24
16.38
14.12
12.89
12.52
12.42
12.01
11.04
9.69
8.39
7.42
6.76
6.08
5.00
3.41
1.57
-0.00
-0.87
-0.94
-0.52
-0.07
0.02
-0.36
-1.03
-1.72
-2.21
-2.44
-2.48
-2.47
-2.51
-2.64
-2.84
-3.01
-3.05
-2.87
-2.45
-1.86
-1.28
-0.94
-1.00
-1.47
-2.16
-2.80
-3.11
-3.05
-2.71
-2.33
-2.07
-1.95
-1.88
-1.74
-1.50
-1.29
-1.27
-1.53
-2.02
-2.55
-2.88
-2.88
-2.55
-2.01
-1.41
-0.90
-0.58
-0.49
-0.60
-0.84
-1.08
-1.22
-1.19
-1.00
-0.74
-0.50
-0.35
-0.30
-0.28
-0.23
-0.12
0.03
0.14
0.15
0.05
-0.11
-0.25
-0.31
-0.29
-0.27
-0.32
-0.48
-0.70
-0.89
-0.94
-0.87
-0.73
-0.64
-0.67
-0.78
-0.88
-0.90
-0.83
-0.66
-0.45
-0.18
0.17
0.60
1.06
1.43
1.57
1.44
1.07
0.59
0.18
-0.07
-0.11
0.02
0.27
0.53
0.73
0.82
0.77
0.63
0.45
0.32
0.25
0.22
0.18
0.07
-0.09
-0.24
-0.30
-0.25
-0.10
0.06
0.17
0.19
0.14
0.09
0.10
0.19
0.33
0.47
0.53
0.47
0.30
0.09
-0.08
-0.14
-0.06
0.11
0.29
0.38
0.35
0.20
0.01
-0.18
-0.32
-0.44
-0.54
-0.62
-0.65
-0.55
-0.32
0.04
0.42
0.70
0.79
0.66
0.38
0.05
-0.23
-0.39
-0.40
-0.27
-0.05
0.21
0.44
0.61
0.67
0.61
0.44
0.22
0.01
-0.10
-0.09
0.06
0.30
0.55
0.74
0.83
0.80
0.68
0.52
0.35
0.20
0.05
-0.09
-0.21
-0.31
-0.38
-0.42
-0.44
-0.46
-0.49
-0.48
-0.42
-0.31
-0.17
-0.07
-0.03
-0.03
-0.02
0.02
0.08
0.09
-0.01
-0.23
-0.51
-0.73
-0.78
-0.63
-0.35
-0.05
0.15
0.21
0.16
0.06
-0.01
-0.00
0.09
0.23
0.34
0.34
0.17
-0.18
-0.60
-0.97
-1.12
-0.98
-0.59
-0.13
0.20
0.21
-0.15
-0.81
-1.62
-2.40
-3.00
-3.38
-3.55
-3.60
-3.59
-3.55
-3.50
-3.42
-3.31
-3.18
-3.08
-3.02
-3.04
-3.10
-3.16
-3.18
-3.13
-3.02
-2.88
-2.74
-2.59
-2.35
-1.94
-1.29
-0.36
0.79
2.04
3.27
4.42
5.48
6.48
7.37
8.04
8.30
8.02
7.17
5.96
4.70
3.72
3.22
3.14
3.29
3.41
3.33
3.08
2.81
2.73
3.02
3.68
4.57
5.43
5.94
5.86
5.09
3.71
1.93
0.09
-1.51
-2.63
-3.20
-3.26
-2.93
-2.37
-1.76
-1.21
-0.80
-0.55
-0.35
-0.02
0.66
1.81
3.40
5.20
6.84
7.97
8.35
7.94
6.91
5.53
4.03
2.59
1.22
-0.13
-1.55
-3.04
-4.52
-5.79
-6.62
-6.85
-6.42
-5.43
-4.05
-2.53
-1.09
0.07
0.74
0.86
0.44
-0.35
-1.25
-2.01
-2.48
-2.64
-2.59
-2.49
-2.40
-2.36
-2.30
-2.20
-2.05
-1.94
-2.00
-2.27
-2.73
-3.25
-3.61
-3.62
-3.20
-2.42
-1.45
-0.49
0.32
0.93
1.37
1.67
1.88
2.01
2.04
1.98
1.84
1.60
1.30
0.94
0.56
0.20
-0.12
-0.36
-0.53
-0.63
-0.67
-0.65
-0.59
-0.57
-0.66
-0.91
-1.34
-1.85
-2.31
-2.62
-2.71
-2.62
-2.46
-2.33
-2.31
-2.42
-2.62
-2.84
-2.98
-2.99
-2.79
-2.36
-1.72
-1.01
-0.36
0.06
0.19
0.05
-0.22
-0.50
-0.67
-0.68
-0.56
-0.35
-0.09
0.21
0.52
0.84
1.12
1.33
1.43
1.46
1.48
1.59
1.87
2.26
2.64
2.82
2.66
2.13
1.38
0.59
-0.06
-0.48
-0.69
-0.69
-0.49
-0.09
0.42
0.93
1.25
1.25
0.93
0.45
0.02
-0.22
-0.28
-0.27
-0.32
-0.49
-0.67
-0.74
-0.57
-0.18
0.29
0.64
0.68
0.33
-0.36
-1.22
-2.02
-2.57
-2.76
-2.65
-2.38
-2.12
-1.99
-1.97
-1.97
-1.89
-1.70
-1.46
-1.26
-1.15
-1.09
-0.98
-0.72
-0.28
0.22
0.65
0.87
0.83
0.59
0.31
0.13
0.14
0.32
0.56
0.71
0.65
0.36
-0.06
-0.40
-0.48
-0.22
0.33
0.95
1.45
1.68
1.62
1.35
1.01
0.71
0.51
0.41
0.34
0.26
0.09
-0.18
-0.52
-0.89
-1.18
-1.35
-1.36
-1.25
-1.09
-0.96
-0.89
-0.89
-0.93
-1.00
-1.11
-1.29
-1.57
-1.94
-2.33
-2.67
-2.90
-2.99
-2.97
-2.92
-2.92
-3.06
-3.39
-3.93
-4.63
-5.40
-6.11
-6.63
-6.92
-7.04
-7.20
-7.59
-8.35
-9.45
-10.69
-11.77
-12.43
-12.55
-12.32
-12.15
-12.51
-13.76
-15.89
-18.53
-21.12
-23.04
-23.86
-23.58
-22.54
-21.40
-21.02
-22.31
-25.64
-30.34
-34.19
-33.79
-25.69
-8.05
18.23
49.59
80.87
106.88
123.67
129.02
122.45
105.03
79.31
49.17
19.24
-6.15
-24.17
-34.30
-38.07
-38.10
-36.83
-35.75
-35.57
-36.56
-38.84
-42.42
-46.99
-51.86
-56.26
-59.76
-62.42
-64.81
-67.71
-71.77
-77.32
-84.38
-92.64
-101.58
-110.60
-119.14
-126.96
-134.38
-142.36
-152.04
-164.06
-177.54
-189.70
-196.31
-192.94
-176.45
-145.98
-103.13
-51.44
4.42
59.43
108.74
148.20
175.00
188.33
189.60
182.10
169.93
156.71
144.71
134.71
126.49
119.53
113.38
107.75
102.33
96.73
90.66
84.05
77.20
70.59
64.72
59.81
55.72
52.05
48.34
44.26
39.79
35.13
30.64
26.65
23.33
20.67
18.48
16.53
14.54
12.40
10.12
7.87
5.89
4.42
3.53
3.14
3.02
2.92
2.66
2.21
1.65
1.13
0.76
0.55
0.44
0.35
0.22
0.06
-0.10
-0.20
-0.25
-0.23
-0.17
-0.07
0.07
0.28
0.55
0.91
1.35
1.84
2.38
2.91
3.39
3.76
3.95
3.96
3.81
3.53
3.23
2.98
2.83
2.78
2.77
2.72
2.56
2.28
1.93
1.57
1.27
1.09
1.02
1.09
1.29
1.63
2.09
2.61
3.10
3.47
3.64
3.59
3.38
3.08
2.77
2.54
2.38
2.27
2.10
1.79
1.36
0.87
0.42
0.07
-0.24
-0.63
-1.24
-2.09
-3.08
-4.04
-4.81
-5.29
-5.52
-5.56
-5.43
-5.15
-4.69
-4.05
-3.34
-2.73
-2.37
-2.34
-2.56
-2.88
-3.09
-3.05
-2.78
-2.41
-2.12
-2.09
-2.35
-2.79
-3.22
-3.45
-3.39
-3.04
-2.51
-1.92
-1.40
-1.00
-0.77
-0.69
-0.71
-0.79
-0.87
-0.93
-0.95
-0.95
-0.93
-0.88
-0.83
-0.77
-0.70
-0.65
-0.60
-0.55
-0.48
-0.40
-0.34
-0.33
-0.39
-0.52
-0.68
-0.82
-0.88
-0.87
-0.86
-0.93
-1.14
-1.49
-1.93
-2.32
-2.57
-2.61
-2.51
-2.37
-2.32
-2.44
-2.72
-3.11
-3.52
-3.89
-4.20
-4.45
-4.65
-4.80
-4.92
-5.00
-5.09
-5.23
-5.39
-5.53
-5.52
-5.26
-4.65
-3.68
-2.40
-0.92
0.64
2.15
3.50
4.63
5.49
6.12
6.54
6.80
6.90
6.80
6.46
5.83
4.95
3.93
2.92
2.04
1.39
1.00
0.88
1.03
1.48
2.19
3.10
4.02
4.76
5.12
5.04
4.61
4.01
3.45
3.09
2.94
2.90
2.84
2.68
2.43
2.22
2.14
2.22
2.39
2.50
2.42
2.13
1.73
1.37
1.19
1.23
1.48
1.85
2.29
2.74
3.15
3.50
3.75
3.89
3.93
3.91
3.85
3.75
3.58
3.34
3.03
2.71
2.44
2.29
2.28
2.43
2.77
3.31
3.99
4.73
5.41
5.94
6.34
6.71
7.22
8.01
9.11
10.45
11.87
13.20
14.36
15.31
16.09
16.74
17.34
18.02
19.02
20.55
22.59
24.51
24.98
22.14
14.30
0.69
-17.95
-39.60
-61.52
-81.02
-95.96
-104.78
-106.41
-100.31
-86.84
-67.56
-45.27
-23.40
-4.98
8.27
16.25
20.09
21.31
21.13
20.23
18.91
17.38
15.95
14.92
14.39
14.21
14.10
13.82
13.18
12.20
10.98
9.71
8.55
7.65
7.10
6.86
6.78
6.64
6.31
5.77
5.17
4.73
4.61
4.79
5.07
5.22
5.05
4.59
3.97
3.38
2.94
2.62
2.36
2.09
1.78
1.48
1.21
0.97
0.71
0.37
-0.02
-0.39
-0.66
-0.76
-0.70
-0.57
-0.47
-0.51
-0.67
-0.91
-1.10
-1.15
-1.02
-0.76
-0.47
-0.30
-0.35
-0.62
-1.06
-1.56
-2.04
-2.48
-2.88
-3.29
-3.71
-4.11
-4.42
-4.61
-4.68
-4.66
-4.53
-4.23
-3.62
-2.63
-1.28
0.24
1.69
2.82
3.49
3.72
3.65
3.47
3.30
3.17
3.03
2.81
2.47
2.02
1.55
1.13
0.80
0.59
0.51
0.60
0.88
1.37
2.01
2.70
3.28
3.63
3.69
3.51
3.16
2.70
2.20
1.69
1.24
0.88
0.64
0.50
0.39
0.25
0.07
-0.09
-0.15
-0.05
0.16
0.42
0.64
0.79
0.89
0.98
1.07
1.09
0.96
0.67
0.26
-0.13
-0.37
-0.44
-0.39
-0.29
-0.24
-0.21
-0.16
-0.01
0.22
0.50
0.74
0.86
0.88
0.84
0.84
0.90
1.05
1.21
1.34
1.37
1.28
1.10
0.91
0.77
0.77
0.92
1.19
1.47
1.63
1.59
1.33
0.91
0.43
0.03
-0.23
-0.31
-0.26
-0.15
-0.12
-0.26
-0.65
-1.26
-2.00
-2.69
-3.15
-3.28
-3.03
-2.50
-1.82
-1.13
-0.56
-0.16
0.05
0.09
-0.02
-0.21
-0.43
-0.62
-0.75
-0.83
-0.87
-0.90
-0.97
-1.07
-1.21
-1.37
-1.52
-1.63
-1.69
-1.65
-1.55
-1.42
-1.32
-1.29
-1.31
-1.28
-1.12
-0.77
-0.27
0.25
0.64
0.79
0.70
0.46
0.22
0.11
0.23
0.59
1.13
1.73
2.24
2.53
2.50
2.18
1.68
1.15
0.73
0.47
0.34
0.26
0.15
-0.01
-0.21
-0.39
-0.53
-0.62
-0.67
-0.71
-0.73
-0.71
-0.62
-0.46
-0.26
-0.04
0.15
0.29
0.34
0.32
0.23
0.12
0.03
0.02
0.09
0.21
0.32
0.37
0.35
0.29
0.26
0.33
0.48
0.63
0.66
0.53
0.28
0.01
-0.13
-0.12
0.02
0.15
0.20
0.14
0.03
-0.06
-0.06
0.00
0.05
0.03
-0.08
-0.24
-0.38
-0.45
-0.45
-0.38
-0.26
-0.12
0.03
0.17
0.28
0.33
0.36
0.38
0.38
0.35
0.23
0.01
-0.28
-0.55
-0.70
-0.69
-0.55
-0.40
-0.37
-0.51
-0.77
-1.05
-1.21
-1.18
-0.98
-0.67
-0.35
-0.12
-0.04
-0.09
-0.22
-0.39
-0.54
-0.67
-0.77
-0.88
-0.96
-0.96
-0.86
-0.67
-0.49
-0.38
-0.40
-0.48
-0.49
-0.33
0.00
0.41
0.72
0.81
0.67
0.41
0.24
0.35
0.87
1.80
3.00
4.24
5.29
5.99
6.38
6.66
7.12
7.97
9.19
10.53
11.58
12.06
11.92
11.47
11.23
11.73
13.24
15.66
18.53
21.18
23.04
23.91
24.05
24.11
24.87
26.85
30.05
33.89
37.48
40.06
41.31
41.51
41.34
41.67
43.27
46.65
52.00
58.87
65.74
69.65
66.59
52.82
26.67
-10.03
-51.96
-91.93
-123.49
-143.14
-150.99
-149.83
-143.21
-133.92
-123.66
-113.70
-105.65
-101.38
-101.87
-106.00
-110.27
-109.95
-101.21
-82.91
-57.18
-28.38
-1.30
20.63
36.12
45.70
50.79
52.79
52.68
51.08
48.47
45.39
42.37
39.78
37.75
36.24
35.00
33.73
32.18
30.24
28.00
25.72
23.66
22.01
20.76
19.72
18.59
17.18
15.43
13.47
11.52
9.82
8.49
7.46
6.59
5.69
4.64
3.48
2.34
1.42
0.86
0.70
0.88
1.28
1.73
2.13
2.42
2.56
2.56
2.42
2.15
1.74
1.20
0.58
-0.05
-0.59
-0.91
-0.95
-0.71
-0.27
0.27
0.79
1.21
1.49
1.64
1.67
1.61
1.48
1.30
1.11
0.92
0.75
0.60
0.43
0.21
-0.04
-0.27
-0.40
-0.35
-0.10
0.28
0.70
1.03
1.17
1.11
0.91
0.65
0.41
0.27
0.23
0.30
0.43
0.58
0.69
0.74
0.72
0.68
0.68
0.73
0.87
1.05
1.23
1.38
1.49
1.55
1.58
1.59
1.54
1.41
1.21
0.98
0.80
0.73
0.77
0.84
0.84
0.69
0.37
-0.02
-0.33
-0.46
-0.38
-0.18
-0.01
0.02
-0.10
-0.28
-0.41
-0.39
-0.23
-0.04
0.05
-0.03
-0.26
-0.50
-0.63
-0.57
-0.38
-0.23
-0.25
-0.50
-0.88
-1.21
-1.31
-1.12
-0.74
-0.31
0.01
0.17
0.23
0.25
0.28
0.28
0.18
-0.07
-0.42
-0.73
-0.90
-0.85
-0.65
-0.40
-0.22
-0.16
-0.16
-0.15
-0.07
0.07
0.20
0.27
0.25
0.19
0.16
0.20
0.30
0.38
0.38
0.26
0.03
-0.21
-0.41
-0.51
-0.55
-0.55
-0.57
-0.60
-0.61
-0.54
-0.38
-0.13
0.17
0.46
0.67
0.75
0.72
0.61
0.48
0.40
0.37
0.37
0.33
0.17
-0.09
-0.40
-0.65
-0.77
-0.74
-0.63
-0.53
-0.48
-0.45
-0.41
-0.29
-0.12
0.05
0.16
0.21
0.23
0.25
0.30
0.37
0.40
0.39
0.33
0.27
0.22
0.16
0.09
0.00
-0.08
-0.12
-0.08
0.02
0.14
0.21
0.21
0.15
0.05
-0.03
-0.09
-0.11
-0.12
-0.14
-0.18
-0.21
-0.19
-0.09
0.11
0.38
0.65
0.90
1.10
1.30
1.51
1.72
1.90
1.99
1.94
1.77
1.54
1.31
1.13
1.05
1.08
1.28
1.66
2.23
2.89
3.52
3.98
4.23
4.40
4.69
5.36
6.51
8.08
9.80
11.34
12.46
13.14
13.61
14.27
15.50
17.47
20.06
22.80
25.16
26.70
27.40
27.71
28.38
30.14
33.30
37.58
42.09
45.74
47.75
48.03
47.41
47.44
49.82
55.57
64.42
74.44
82.54
85.34
80.40
66.99
46.15
20.09
-8.65
-37.84
-65.67
-90.67
-111.65
-127.78
-138.63
-143.85
-142.49
-132.60
-111.74
-78.49
-34.17
16.23
65.05
104.69
130.59
142.93
146.44
147.68
152.00
161.32
173.45
183.34
185.47
175.99
154.09
121.87
83.25
42.59
3.46
-31.74
-61.63
-85.34
-102.25
-112.16
-115.65
-114.28
-110.33
-106.16
-103.42
-102.54
-102.87
-103.05
-101.63
-97.65
-90.93
-82.14
-72.64
-63.99
-57.28
-52.78
-49.99
-47.88
-45.50
-42.39
-38.68
-34.96
-31.82
-29.61
-28.29
-27.47
-26.64
-25.35
-23.38
-20.79
-17.85
-14.95
-12.43
-10.50
-9.16
-8.24
-7.44
-6.51
-5.35
-4.05
-2.80
-1.83
-1.26
-1.11
-1.26
-1.52
-1.72
-1.74
-1.53
-1.14
-0.66
-0.19
0.15
0.27
0.16
-0.15
-0.57
-0.97
-1.25
-1.33
-1.26
-1.12
-1.00
-0.99
-1.10
-1.28
-1.46
-1.57
-1.59
-1.48
-1.26
-1.01
-0.82
-0.79
-1.00
-1.42
-1.93
-2.37
-2.61
-2.59
-2.35
-2.01
-1.64
-1.30
-1.02
-0.81
-0.68
-0.65
-0.71
-0.80
-0.84
-0.73
-0.46
-0.06
0.35
0.68
0.86
0.88
0.78
0.61
0.44
0.31
0.25
0.27
0.34
0.44
0.52
0.57
0.60
0.64
0.70
0.78
0.85
0.86
0.79
0.64
0.48
0.40
0.42
0.55
0.70
0.79
0.72
0.49
0.15
-0.22
-0.52
-0.72
-0.82
-0.85
-0.83
-0.78
-0.70
-0.63
-0.58
-0.58
-0.64
-0.73
-0.80
-0.77
-0.64
-0.42
-0.20
-0.09
-0.14
-0.34
-0.61
-0.81
-0.86
-0.74
-0.51
-0.27
-0.11
-0.06
-0.10
-0.18
-0.28
-0.35
-0.35
-0.22
0.08
0.52
1.00
1.36
1.42
1.15
0.62
-0.02
-0.56
-0.89
-0.95
-0.80
-0.49
-0.11
0.28
0.62
0.87
1.01
1.06
1.02
0.93
0.77
0.53
0.20
-0.16
-0.48
-0.65
-0.61
-0.39
-0.06
0.27
0.51
0.63
0.60
0.41
0.09
-0.30
-0.62
-0.76
-0.61
-0.24
0.23
0.61
0.77
0.74
0.63
0.55
0.57
0.61
0.57
0.41
0.17
-0.00
-0.04
0.05
0.13
0.06
-0.22
-0.61
-0.93
-1.00
-0.75
-0.24
0.38
0.93
1.26
1.34
1.18
0.87
0.50
0.18
-0.04
-0.15
-0.19
-0.24
-0.32
-0.47
-0.63
-0.77
-0.83
-0.78
-0.64
-0.43
-0.21
-0.06
-0.00
-0.04
-0.15
-0.27
-0.35
-0.37
-0.30
-0.16
0.03
0.23
0.36
0.36
0.20
-0.10
-0.46
-0.78
-0.96
-0.99
-0.90
-0.75
-0.58
-0.42
-0.30
-0.25
-0.30
-0.45
-0.65
-0.80
-0.80
-0.62
-0.28
0.08
0.31
0.30
0.05
-0.37
-0.81
-1.13
-1.24
-1.13
-0.88
-0.64
-0.51
-0.60
-0.89
-1.35
-1.88
-2.39
-2.83
-3.14
-3.26
-3.13
-2.66
-1.82
-0.62
0.87
2.51
4.13
5.58
6.70
7.40
7.57
7.17
6.21
4.79
3.12
1.48
0.16
-0.63
-0.82
-0.55
-0.04
0.41
0.62
0.54
0.28
0.01
-0.14
-0.10
0.08
0.31
0.46
0.47
0.30
0.03
-0.25
-0.45
-0.52
-0.44
-0.24
0.01
0.28
0.54
0.79
1.03
1.27
1.47
1.60
1.63
1.61
1.58
1.61
1.71
1.80
1.79
1.60
1.23
0.80
0.50
0.46
0.71
1.10
1.38
1.34
0.89
0.15
-0.67
-1.33
-1.70
-1.81
-1.78
-1.72
-1.72
-1.76
-1.78
-1.74
-1.61
-1.43
-1.24
-1.06
-0.93
-0.82
-0.73
-0.66
-0.62
-0.63
-0.69
-0.78
-0.89
-1.01
-1.11
-1.18
-1.20
-1.14
-0.99
-0.76
-0.46
-0.15
0.09
0.18
0.09
-0.12
-0.31
-0.35
-0.15
0.24
0.63
0.85
0.80
0.51
0.18
0.00
0.06
0.29
0.52
0.62
0.53
0.34
0.20
0.20
0.32
0.46
0.49
0.37
0.13
-0.12
-0.31
-0.42
-0.49
-0.59
-0.72
-0.83
-0.84
-0.74
-0.59
-0.51
-0.62
-0.93
-1.36
-1.74
-1.90
-1.79
-1.48
-1.09
-0.78
-0.60
-0.50
-0.40
-0.26
-0.09
0.05
0.12
0.13
0.16
0.29
0.53
0.82
1.01
0.97
0.66
0.15
-0.36
-0.71
-0.81
-0.65
-0.35
-0.01
0.26
0.43
0.50
0.48
0.39
0.24
0.06
-0.13
-0.29
-0.42
-0.47
-0.43
-0.27
0.05
0.48
0.94
1.26
1.34
1.13
0.72
0.27
-0.05
-0.17
-0.13
-0.06
-0.07
-0.17
-0.29
-0.30
-0.14
0.15
0.43
0.56
0.48
0.24
0.00
-0.09
0.01
0.24
0.43
0.45
0.24
-0.14
-0.53
-0.82
-0.94
-0.93
-0.89
-0.90
-0.97
-1.04
-1.02
-0.87
-0.62
-0.35
-0.16
-0.09
-0.12
-0.21
-0.32
-0.44
-0.60
-0.83
-1.07
-1.20
-1.09
-0.70
-0.09
0.55
1.03
1.23
1.15
0.92
0.68
0.54
0.50
0.50
0.45
0.35
0.25
0.24
0.42
0.79
1.27
1.72
1.97
1.97
1.75
1.46
1.24
1.16
1.19
1.22
1.15
0.97
0.77
0.68
0.79
1.07
1.39
1.59
1.55
1.29
0.95
0.68
0.55
0.55
0.58
0.52
0.35
0.12
-0.08
-0.16
-0.09
0.08
0.27
0.44
0.58
0.70
0.78
0.78
0.65
0.34
-0.15
-0.78
-1.43
-2.00
-2.41
-2.66
-2.75
-2.73
-2.62
-2.43
-2.19
-1.94
-1.71
-1.56
-1.50
-1.53
-1.60
-1.66
-1.67
-1.60
-1.42
-1.11
-0.70
-0.25
0.16
0.45
0.60
0.66
0.67
0.66
0.62
0.48
0.25
-0.03
-0.27
-0.37
-0.29
-0.07
0.21
0.48
0.70
0.83
0.85
0.75
0.54
0.24
-0.09
-0.38
-0.56
-0.61
-0.54
-0.39
-0.19
0.01
0.19
0.35
0.47
0.55
0.58
0.53
0.40
0.21
0.00
-0.20
-0.36
-0.47
-0.51
-0.47
-0.36
-0.19
-0.00
0.14
0.19
0.13
-0.03
-0.23
-0.43
-0.60
-0.74
-0.84
-0.85
-0.73
-0.48
-0.12
0.24
0.47
0.51
0.37
0.16
0.04
0.10
0.34
0.70
1.04
1.27
1.37
1.35
1.25
1.09
0.86
0.59
0.32
0.12
0.09
0.28
0.64
1.05
1.33
1.30
0.92
0.28
-0.43
-0.97
-1.15
-0.88
-0.24
0.55
1.26
1.66
1.61
1.14
0.42
-0.31
-0.84
-1.08
-1.05
-0.89
-0.68
-0.48
-0.25
0.06
0.42
0.73
0.86
0.73
0.42
0.07
-0.15
-0.18
-0.08
-0.00
-0.05
-0.28
-0.62
-1.03
-1.42
-1.76
-2.01
-2.11
-1.97
-1.58
-1.01
-0.41
0.02
0.15
-0.02
-0.37
-0.71
-0.89
-0.83
-0.54
-0.07
0.49
1.07
1.57
1.88
1.94
1.77
1.43
1.05
0.74
0.53
0.40
0.31
0.23
0.17
0.16
0.21
0.30
0.36
0.37
0.30
0.17
0.00
-0.16
-0.32
-0.45
-0.54
-0.58
-0.56
-0.50
-0.45
-0.45
-0.51
-0.59
-0.60
-0.49
-0.28
-0.03
0.15
0.16
-0.01
-0.33
-0.70
-1.00
-1.16
-1.12
-0.90
-0.54
-0.09
0.38
0.80
1.11
1.25
1.20
0.94
0.53
0.04
-0.41
-0.73
-0.84
-0.78
-0.63
-0.51
-0.53
-0.71
-1.02
-1.38
-1.68
-1.88
-1.94
-1.90
-1.80
-1.71
-1.72
-1.91
-2.31
-2.86
-3.43
-3.83
-3.91
-3.58
-2.86
-1.88
-0.81
0.16
0.92
1.42
1.67
1.73
1.68
1.57
1.43
1.26
1.03
0.70
0.28
-0.22
-0.76
-1.29
-1.73
-1.97
-1.92
-1.52
-0.79
0.15
1.11
1.88
2.32
2.38
2.09
1.60
1.05
0.57
0.24
0.07
0.04
0.08
0.14
0.19
0.24
0.31
0.44
0.65
0.91
1.18
1.44
1.66
1.84
1.95
1.98
1.89
1.68
1.35
0.94
0.46
-0.07
-0.68
-1.35
-1.98
-2.38
-2.35
-1.70
-0.41
1.39
3.46
5.47
7.11
8.15
8.47
8.04
6.94
5.31
3.45
1.66
0.24
-0.61
-0.87
-0.66
-0.23
0.17
0.36
0.26
-0.08
-0.50
-0.86
-1.01
-0.92
-0.63
-0.30
-0.09
-0.11
-0.37
-0.74
-1.07
-1.21
-1.12
-0.87
-0.60
-0.39
-0.28
-0.21
-0.13
-0.00
0.14
0.25
0.28
0.23
0.13
-0.02
-0.23
-0.53
-0.91
-1.31
-1.63
-1.80
-1.81
-1.71
-1.60
-1.55
-1.58
-1.65
-1.68
-1.65
-1.57
-1.46
-1.38
-1.31
-1.21
-1.03
-0.74
-0.39
-0.05
0.20
0.33
0.37
0.37
0.39
0.42
0.44
0.36
0.19
-0.06
-0.33
-0.54
-0.65
-0.66
-0.59
-0.46
-0.29
-0.10
0.08
0.21
0.24
0.13
-0.14
-0.54
-1.01
-1.42
-1.64
-1.60
-1.24
-0.60
0.21
1.02
1.68
2.06
2.12
1.92
1.58
1.23
0.98
0.83
0.77
0.76
0.76
0.78
0.82
0.84
0.78
0.59
0.28
-0.06
-0.29
-0.36
-0.26
-0.10
-0.02
-0.10
-0.29
-0.50
-0.60
-0.55
-0.41
-0.27
-0.19
-0.17
-0.14
-0.05
0.13
0.32
0.43
0.39
0.19
-0.08
-0.29
-0.35
-0.23
-0.01
0.25
0.48
0.67
0.79
0.84
0.77
0.56
0.22
-0.15
-0.44
-0.58
-0.55
-0.42
-0.29
-0.22
-0.20
-0.20
-0.16
-0.07
0.05
0.16
0.22
0.25
0.27
0.30
0.38
0.49
0.61
0.71
0.74
0.70
0.60
0.51
0.44
0.39
0.33
0.21
0.02
-0.19
-0.36
-0.42
-0.36
-0.23
-0.13
-0.14
-0.28
-0.49
-0.72
-0.91
-1.06
-1.19
-1.34
-1.54
-1.79
-2.03
-2.17
-2.15
-1.99
-1.74
-1.54
-1.51
-1.69
-2.03
-2.44
-2.80
-3.07
-3.27
-3.46
-3.69
-3.96
-4.26
-4.59
-5.00
-5.52
-6.17
-6.89
-7.54
-8.03
-8.37
-8.69
-9.19
-9.99
-11.07
-12.21
-13.18
-13.82
-14.25
-14.82
-16.04
-18.24
-21.43
-25.19
-28.80
-31.51
-32.89
-33.05
-32.61
-32.47
-33.42
-35.68
-38.75
-41.59
-42.99
-41.96
-37.67
-29.25
-15.72
3.78
29.29
59.39
91.19
121.14
146.28
165.00
176.82
181.43
177.85
164.67
141.17
108.82
71.70
35.54
5.59
-15.32
-27.45
-33.24
-35.56
-36.44
-36.57
-35.90
-34.35
-32.34
-30.55
-29.57
-29.53
-30.16
-30.99
-31.49
-31.25
-30.07
-28.06
-25.51
-22.94
-20.89
-19.66
-19.18
-19.01
-18.59
-17.55
-15.90
-14.00
-12.34
-11.27
-10.80
-10.62
-10.34
-9.71
-8.73
-7.62
-6.67
-6.05
-5.76
-5.64
-5.47
-5.05
-4.30
-3.23
-1.99
-0.79
0.12
0.55
0.48
0.04
-0.52
-0.93
-1.02
-0.81
-0.45
-0.15
-0.06
-0.21
-0.52
-0.87
-1.16
-1.36
-1.45
-1.44
-1.35
-1.19
-0.97
-0.72
-0.47
-0.25
-0.09
-0.02
-0.08
-0.25
-0.48
-0.66
-0.67
-0.47
-0.09
0.36
0.71
0.86
0.80
0.58
0.28
-0.06
-0.43
-0.86
-1.30
-1.67
-1.87
-1.82
-1.56
-1.20
-0.90
-0.78
-0.86
-1.11
-1.42
-1.66
-1.76
-1.68
-1.46
-1.18
-0.91
-0.70
-0.54
-0.41
-0.28
-0.15
-0.06
-0.04
-0.08
-0.16
-0.20
-0.16
-0.01
0.27
0.64
1.05
1.42
1.67
1.72
1.60
1.40
1.26
1.27
1.45
1.73
1.98
2.12
2.14
2.08
1.98
1.83
1.61
1.32
1.01
0.78
0.68
0.72
0.83
0.94
0.98
0.96
0.92
0.89
0.88
0.86
0.82
0.76
0.71
0.66
0.58
0.42
0.17
-0.13
-0.43
-0.66
-0.79
-0.86
-0.90
-0.93
-0.92
-0.81
-0.59
-0.30
-0.01
0.16
0.16
-0.00
-0.27
-0.56
-0.76
-0.82
-0.73
-0.51
-0.26
-0.07
-0.01
-0.11
-0.29
-0.48
-0.56
-0.49
-0.30
-0.12
-0.04
-0.13
-0.38
-0.66
-0.86
-0.88
-0.70
-0.43
-0.17
-0.02
0.04
0.08
0.21
0.49
0.85
1.18
1.35
1.30
1.10
0.84
0.61
0.45
0.34
0.22
0.09
-0.00
-0.02
0.04
0.13
0.18
0.13
-0.00
-0.18
-0.33
-0.46
-0.56
-0.65
-0.73
-0.73
-0.61
-0.38
-0.11
0.08
0.10
-0.08
-0.36
-0.58
-0.59
-0.34
0.12
0.60
0.93
1.00
0.84
0.57
0.34
0.21
0.13
0.03
-0.17
-0.42
-0.62
-0.65
-0.47
-0.13
0.22
0.44
0.47
0.35
0.18
0.05
0.02
0.05
0.10
0.11
0.10
0.09
0.12
0.21
0.33
0.42
0.39
0.22
-0.06
-0.37
-0.57
-0.64
-0.56
-0.42
-0.29
-0.22
-0.19
-0.18
-0.17
-0.14
-0.15
-0.22
-0.33
-0.44
-0.48
-0.40
-0.21
0.03
0.25
0.37
0.38
0.29
0.12
-0.08
-0.25
-0.36
-0.40
-0.37
-0.29
-0.18
-0.07
0.05
0.17
0.28
0.35
0.37
0.33
0.26
0.22
0.23
0.29
0.36
0.40
0.36
0.26
0.13
0.03
0.01
0.09
0.24
0.41
0.52
0.54
0.44
0.24
-0.02
-0.26
-0.42
-0.48
-0.44
-0.37
-0.30
-0.31
-0.40
-0.53
-0.61
-0.60
-0.51
-0.38
-0.33
-0.37
-0.49
-0.60
-0.59
-0.41
-0.11
0.22
0.48
0.59
0.55
0.40
0.22
0.05
-0.07
-0.10
-0.01
0.19
0.48
0.77
0.98
1.04
0.94
0.76
0.61
0.56
0.63
0.75
0.83
0.84
0.77
0.67
0.57
0.49
0.40
0.28
0.13
-0.04
-0.20
-0.35
-0.48
-0.60
-0.69
-0.73
-0.71
-0.66
-0.62
-0.63
-0.72
-0.86
-1.03
-1.18
-1.28
-1.31
-1.23
-1.04
-0.71
-0.30
0.11
0.43
0.60
0.59
0.48
0.36
0.26
0.18
0.10
0.03
-0.00
0.06
0.22
0.41
0.52
0.43
0.13
-0.29
-0.66
-0.83
-0.75
-0.47
-0.14
0.11
0.25
0.30
0.36
0.47
0.62
0.72
0.67
0.43
0.04
-0.31
-0.45
-0.27
0.16
0.68
1.05
1.10
0.82
0.34
-0.15
-0.48
-0.60
-0.56
-0.51
-0.54
-0.69
-0.88
-1.02
-1.01
-0.83
-0.52
-0.18
0.13
0.36
0.49
0.56
0.58
0.55
0.45
0.27
0.04
-0.20
-0.38
-0.42
-0.28
0.02
0.41
0.77
0.97
0.97
0.80
0.59
0.45
0.47
0.62
0.79
0.87
0.75
0.45
0.05
-0.33
-0.58
-0.67
-0.63
-0.54
-0.47
-0.45
-0.48
-0.53
-0.56
-0.53
-0.43
-0.25
-0.01
0.23
0.42
0.52
0.49
0.36
0.18
0.04
-0.03
-0.00
0.11
0.26
0.43
0.58
0.67
0.69
0.60
0.40
0.09
-0.29
-0.67
-0.96
-1.09
-1.06
-0.91
-0.70
-0.54
-0.44
-0.40
-0.41
-0.46
-0.57
-0.78
-1.04
-1.26
-1.32
-1.11
-0.69
-0.20
0.17
0.29
0.16
-0.09
-0.33
-0.44
-0.39
-0.21
0.09
0.49
0.98
1.52
2.01
2.32
2.35
2.10
1.65
1.11
0.59
0.13
-0.29
-0.67
-1.00
-1.24
-1.35
-1.31
-1.12
-0.85
-0.51
-0.14
0.22
0.51
0.67
0.67
0.55
0.40
0.31
0.35
0.52
0.72
0.88
0.91
0.80
0.59
0.36
0.14
-0.04
-0.18
-0.27
-0.30
-0.25
-0.11
0.06
0.18
0.17
0.02
-0.21
-0.41
-0.50
-0.45
-0.35
-0.28
-0.33
-0.51
-0.76
-0.96
-1.03
-0.95
-0.70
-0.33
0.13
0.63
1.06
1.30
1.24
0.86
0.27
-0.31
-0.67
-0.68
-0.42
-0.09
0.10
0.01
-0.32
-0.70
-0.93
-0.88
-0.58
-0.17
0.18
0.35
0.34
0.24
0.17
0.18
0.27
0.38
0.46
0.47
0.47
0.52
0.65
0.82
0.92
0.81
0.46
-0.07
-0.61
-0.96
-1.01
-0.80
-0.50
-0.29
-0.28
-0.42
-0.57
-0.57
-0.37
-0.05
0.23
0.34
0.25
0.05
-0.12
-0.17
-0.13
-0.10
-0.18
-0.37
-0.59
-0.66
-0.48
-0.06
0.47
0.91
1.09
0.99
0.71
0.46
0.38
0.51
0.77
0.99
1.05
0.89
0.57
0.23
-0.04
-0.21
-0.31
-0.40
-0.51
-0.61
-0.62
-0.50
-0.22
0.11
0.40
0.53
0.49
0.33
0.16
0.06
0.06
0.10
0.09
0.01
-0.12
-0.22
-0.22
-0.09
0.08
0.18
0.14
-0.03
-0.23
-0.36
-0.36
-0.24
-0.08
0.02
0.02
-0.09
-0.27
-0.46
-0.60
-0.67
-0.67
-0.62
-0.57
-0.54
-0.57
-0.62
-0.64
-0.60
-0.47
-0.31
-0.17
-0.12
-0.17
-0.31
-0.48
-0.63
-0.74
-0.81
-0.84
-0.83
-0.78
-0.70
-0.62
-0.54
-0.51
-0.55
-0.69
-0.93
-1.28
-1.72
-2.19
-2.59
-2.83
-2.83
-2.54
-1.97
-1.15
-0.12
1.08
2.39
3.71
4.88
5.72
6.12
6.04
5.57
4.89
4.16
3.53
3.04
2.66
2.31
1.92
1.42
0.82
0.20
-0.35
-0.74
-0.91
-0.90
-0.78
-0.67
-0.61
-0.62
-0.67
-0.69
-0.68
-0.67
-0.68
-0.72
-0.76
-0.73
-0.61
-0.41
-0.20
-0.06
-0.04
-0.16
-0.38
-0.64
-0.87
-1.01
-1.03
-0.93
-0.72
-0.48
-0.28
-0.17
-0.18
-0.25
-0.33
-0.40
-0.45
-0.50
-0.54
-0.52
-0.41
-0.20
0.03
0.17
0.10
-0.20
-0.64
-1.05
-1.25
-1.18
-0.87
-0.44
-0.05
0.19
0.26
0.18
0.07
0.01
0.08
0.25
0.47
0.65
0.73
0.69
0.57
0.40
0.24
0.10
-0.02
-0.13
-0.20
-0.22
-0.16
-0.05
0.08
0.18
0.21
0.16
0.05
-0.08
-0.20
-0.27
-0.27
-0.23
-0.15
-0.07
0.01
0.08
0.14
0.19
0.23
0.26
0.28
0.28
0.25
0.19
0.09
-0.01
-0.10
-0.16
-0.19
-0.21
-0.23
-0.24
-0.24
-0.19
-0.12
-0.06
-0.08
-0.18
-0.34
-0.44
-0.40
-0.21
0.07
0.32
0.44
0.41
0.30
0.21
0.23
0.35
0.49
0.58
0.54
0.38
0.18
0.01
-0.08
-0.08
-0.02
0.07
0.11
0.08
-0.05
-0.25
-0.45
-0.55
-0.50
-0.31
-0.06
0.15
0.23
0.16
-0.04
-0.28
-0.49
-0.63
-0.69
-0.69
-0.64
-0.56
-0.44
-0.28
-0.10
0.10
0.28
0.43
0.55
0.63
0.66
0.66
0.60
0.49
0.35
0.19
0.06
-0.01
-0.01
0.05
0.12
0.19
0.20
0.16
0.07
-0.07
-0.23
-0.40
-0.55
-0.64
-0.63
-0.51
-0.31
-0.10
0.03
0.05
-0.02
-0.11
-0.14
-0.09
-0.01
0.04
-0.02
-0.17
-0.31
-0.36
-0.26
-0.06
0.12
0.16
0.03
-0.23
-0.46
-0.53
-0.38
-0.04
0.36
0.70
0.89
0.95
0.91
0.86
0.83
0.82
0.75
0.60
0.38
0.15
0.01
0.03
0.19
0.38
0.45
0.30
-0.05
-0.44
-0.67
-0.62
-0.28
0.19
0.56
0.63
0.37
-0.10
-0.55
-0.79
-0.69
-0.30
0.23
0.71
1.01
1.04
0.84
0.47
0.04
-0.38
-0.74
-1.01
-1.17
-1.23
-1.15
-0.94
-0.60
-0.18
0.25
0.60
0.84
0.93
0.90
0.77
0.56
0.27
-0.06
-0.38
-0.60
-0.65
-0.53
-0.26
0.09
0.43
0.71
0.87
0.89
0.73
0.37
-0.15
-0.76
-1.27
-1.52
-1.41
-0.99
-0.41
0.10
0.37
0.35
0.11
-0.20
-0.46
-0.60
-0.65
-0.64
-0.60
-0.54
-0.44
-0.29
-0.12
0.03
0.12
0.13
0.08
0.02
-0.00
0.05
0.19
0.37
0.56
0.71
0.77
0.71
0.53
0.23
-0.13
-0.51
-0.81
-0.99
-1.01
-0.89
-0.69
-0.47
-0.28
-0.14
-0.05
0.01
0.04
0.04
0.02
-0.01
-0.03
-0.03
-0.03
-0.05
-0.15
-0.35
-0.65
-0.95
-1.16
-1.17
-0.92
-0.44
0.17
0.77
1.20
1.37
1.28
1.04
0.78
0.60
0.54
0.52
0.48
0.34
0.12
-0.14
-0.33
-0.40
-0.36
-0.26
-0.15
-0.08
-0.07
-0.09
-0.13
-0.14
-0.13
-0.11
-0.13
-0.26
-0.49
-0.78
-1.04
-1.21
-1.25
-1.25
-1.29
-1.50
-1.91
-2.49
-3.16
-3.80
-4.33
-4.71
-4.98
-5.24
-5.60
-6.16
-6.89
-7.63
-8.11
-8.06
-7.38
-6.25
-5.08
-4.36
-4.44
-5.39
-7.04
-9.13
-11.41
-13.80
-16.33
-19.05
-21.96
-25.01
-28.17
-31.50
-35.21
-39.57
-44.79
-50.96
-58.03
-65.76
-73.82
-81.70
-88.83
-94.61
-98.56
-100.63
-101.34
-101.77
-103.41
-107.72
-115.58
-126.64
-139.02
-149.25
-152.85
-145.51
-124.58
-90.33
-46.41
0.98
44.87
79.56
102.21
113.06
114.63
110.20
102.54
93.43
83.87
74.68
66.96
61.98
60.76
63.50
69.37
76.65
83.38
87.99
89.76
89.01
86.68
83.80
80.96
78.14
74.77
70.29
64.51
57.83
51.17
45.49
41.37
38.74
36.97
35.20
32.81
29.66
26.09
22.71
20.02
18.16
16.90
15.77
14.38
12.57
10.48
8.42
6.71
5.54
4.88
4.58
4.44
4.27
3.95
3.47
2.88
2.30
1.84
1.56
1.45
1.43
1.40
1.28
1.08
0.82
0.59
0.43
0.35
0.26
0.12
-0.13
-0.49
-0.92
-1.33
-1.62
-1.73
-1.62
-1.31
-0.87
-0.41
-0.03
0.21
0.29
0.27
0.23
0.23
0.29
0.36
0.38
0.30
0.17
0.08
0.08
0.19
0.34
0.44
0.38
0.17
-0.14
-0.42
-0.61
-0.69
-0.70
-0.72
-0.80
-0.93
-1.11
-1.30
-1.54
-1.85
-2.26
-2.74
-3.21
-3.50
-3.51
-3.21
-2.72
-2.28
-2.11
-2.30
-2.78
-3.30
-3.56
-3.34
-2.65
-1.64
-0.61
0.19
0.66
0.83
0.85
0.86
0.94
1.05
1.16
1.24
1.29
1.40
1.67
2.14
2.74
3.31
3.65
3.59
3.11
2.35
1.58
1.09
1.03
1.33
1.79
2.12
2.13
1.81
1.34
1.00
1.04
1.61
2.65
3.99
5.38
6.60
7.59
8.48
9.56
11.14
13.30
15.85
18.31
20.10
20.84
20.58
19.82
19.36
19.92
21.81
24.72
27.89
30.39
31.67
31.69
31.06
30.66
31.18
32.98
35.96
39.78
43.88
47.22
48.10
44.22
33.39
14.69
-10.70
-39.57
-67.71
-91.63
-109.73
-122.50
-131.36
-137.25
-139.68
-137.07
-127.86
-111.66
-89.80
-64.82
-39.57
-16.22
4.19
21.73
37.06
50.50
61.47
68.45
69.84
65.10
55.73
45.08
37.11
34.59
37.83
44.65
51.73
56.45
58.21
58.24
58.47
60.19
63.24
66.34
67.99
67.31
64.57
60.85
57.41
54.89
52.65
48.89
41.41
28.81
11.60
-7.60
-24.87
-36.55
-40.84
-38.41
-31.95
-24.74
-19.17
-15.97
-14.32
-12.64
-9.63
-4.79
1.68
9.18
17.01
24.16
29.28
30.80
27.49
19.30
7.90
-3.61
-11.77
-14.16
-10.55
-3.10
4.47
8.35
6.20
-2.11
-14.60
-28.12
-39.60
-47.07
-50.07
-49.38
-46.36
-42.32
-37.92
-33.50
-29.32
-25.86
-23.74
-23.38
-24.60
-26.58
-28.14
-28.37
-27.02
-24.57
-22.03
-20.36
-20.03
-20.88
-22.19
-23.08
-22.88
-21.41
-19.02
-16.34
-14.02
-12.45
-11.65
-11.34
-11.08
-10.54
-9.56
-8.25
-6.83
-5.57
-4.61
-3.96
-3.53
-3.16
-2.73
-2.22
-1.70
-1.26
-0.98
-0.85
-0.80
-0.72
-0.51
-0.13
0.37
0.86
1.24
1.43
1.47
1.47
1.52
1.70
1.97
2.27
2.52
2.68
2.71
2.62
2.38
1.96
1.34
0.56
-0.32
-1.20
-1.99
-2.62
-3.05
-3.26
-3.28
-3.13
-2.88
-2.60
-2.34
-2.15
-2.03
-1.94
-1.89
-1.86
-1.86
-1.87
-1.88
-1.81
-1.64
-1.36
-1.06
-0.85
-0.84
-1.06
-1.47
-1.94
-2.32
-2.48
-2.34
-1.92
-1.32
-0.68
-0.12
0.28
0.53
0.65
0.70
0.72
0.72
0.67
0.54
0.33
0.06
-0.19
-0.34
-0.32
-0.13
0.14
0.38
0.45
0.33
0.07
-0.17
-0.28
-0.23
-0.14
-0.19
-0.49
-1.02
-1.63
-2.09
-2.25
-2.11
-1.81
-1.55
-1.46
-1.55
-1.72
-1.82
-1.75
-1.54
-1.28
-1.15
-1.23
-1.52
-1.92
-2.26
-2.42
-2.38
-2.26
-2.25
-2.57
-3.34
-4.57
-6.10
-7.61
-8.76
-9.25
-9.04
-8.39
-7.84
-8.01
-9.33
-11.73
-14.65
-17.17
-18.47
-18.21
-16.78
-15.19
-14.63
-15.94
-19.18
-23.46
-27.26
-29.02
-27.84
-23.98
-18.97
-15.37
-15.82
-21.76
-32.34
-43.84
-50.22
-44.78
-22.28
19.06
76.54
143.43
210.53
268.31
308.89
327.40
322.62
296.98
255.98
206.92
156.95
111.31
72.22
39.24
10.65
-14.71
-36.67
-53.94
-65.32
-70.80
-71.80
-70.40
-68.04
-64.98
-60.55
-54.15
-46.14
-37.90
-31.06
-26.46
-23.50
-20.27
-14.28
-3.51
12.31
30.86
47.26
55.33
49.85
29.07
-3.94
-41.92
-76.00
-99.15
-108.61
-106.35
-97.27
-86.54
-77.33
-70.27
-64.37
-58.55
-52.68
-47.58
-44.21
-42.84
-42.72
-42.36
-40.38
-36.23
-30.48
-24.57
-20.07
-17.97
-18.29
-20.09
-21.96
-22.67
-21.65
-19.07
-15.71
-12.52
-10.23
-9.09
-8.86
-8.95
-8.73
-7.79
-6.06
-3.83
-1.56
0.35
1.68
2.51
3.10
3.76
4.70
5.91
7.21
8.30
8.89
8.79
7.89
6.24
3.99
1.44
-1.08
-3.25
-4.86
-5.88
-6.39
-6.54
-6.49
-6.33
-6.16
-6.03
-6.06
-6.36
-6.99
-7.89
-8.91
-9.80
-10.32
-10.33
-9.84
-9.04
-8.19
-7.53
-7.17
-7.04
-6.99
-6.88
-6.67
-6.42
-6.22
-6.07
-5.90
-5.59
-5.09
-4.42
-3.72
-3.12
-2.69
-2.43
-2.25
-2.09
-1.90
-1.64
-1.30
-0.89
-0.45
-0.08
0.14
0.15
0.01
-0.18
-0.28
-0.23
-0.02
0.31
0.72
1.20
1.78
2.42
3.03
3.45
3.56
3.35
2.92
2.47
2.16
2.10
2.24
2.47
2.65
2.66
2.46
2.04
1.45
0.78
0.16
-0.26
-0.40
-0.27
-0.04
0.06
-0.22
-1.01
-2.24
-3.64
-4.78
-5.31
-5.05
-4.13
-2.97
-2.10
-2.05
-3.04
-4.95
-7.26
-9.16
-9.63
-7.76
-2.99
4.44
13.31
21.60
27.03
27.80
23.31
14.38
3.00
-8.49
-18.10
-24.82
-28.63
-30.24
-30.66
-30.78
-31.19
-32.04
-33.09
-33.70
-32.95
-29.90
-23.95
-15.18
-4.56
6.23
15.30
21.33
24.08
24.46
23.94
23.65
23.95
24.31
23.84
22.05
19.03
15.25
11.26
7.65
5.32
5.58
9.73
18.06
29.08
39.58
45.94
45.96
40.11
31.27
23.24
18.63
17.84
19.28
20.75
20.84
19.44
17.28
15.00
12.55
9.28
4.60
-1.55
-8.51
-15.17
-20.41
-23.64
-24.83
-24.49
-23.35
-22.06
-20.97
-20.04
-18.97
-17.38
-15.07
-12.10
-8.87
-5.91
-3.64
-2.22
-1.45
-0.88
-0.09
1.09
2.45
3.51
3.78
2.98
1.24
-1.03
-3.27
-5.07
-6.26
-6.92
-7.22
-7.28
-7.18
-6.91
-6.52
-6.10
-5.78
-5.63
-5.60
-5.50
-5.06
-4.08
-2.47
-0.31
2.14
4.49
6.30
7.22
7.08
5.98
4.27
2.37
0.70
-0.55
-1.36
-1.89
-2.25
-2.45
-2.42
-2.11
-1.55
-0.92
-0.43
-0.22
-0.22
-0.31
-0.32
-0.19
0.00
0.11
0.01
-0.35
-0.89
-1.48
-1.96
-2.21
-2.24
-2.12
-2.01
-2.06
-2.42
-3.06
-3.90
-4.76
-5.49
-5.97
-6.16
-6.02
-5.55
-4.78
-3.78
-2.73
-1.87
-1.41
-1.50
-2.18
-3.33
-4.78
-6.26
-7.57
-8.54
-9.17
-9.60
-10.04
-10.78
-11.98
-13.67
-15.69
-17.76
-19.61
-21.04
-22.07
-22.89
-23.89
-25.48
-27.92
-31.26
-35.19
-39.22
-42.83
-45.76
-48.16
-50.65
-53.97
-58.77
-65.20
-72.90
-81.17
-89.36
-97.18
-104.84
-112.85
-121.64
-131.34
-141.71
-152.26
-162.33
-170.93
-176.63
-177.37
-170.91
-155.44
-130.29
-96.29
-55.45
-9.98
38.68
90.07
144.15
200.06
255.29
305.85
347.47
377.43
395.50
403.70
404.75
400.27
389.74
370.99
341.64
300.65
249.15
190.18
127.89
66.63
10.50
-36.94
-73.02
-96.49
-107.94
-109.73
-105.28
-98.07
-90.61
-84.19
-79.09
-75.25
-72.55
-70.93
-70.10
-69.49
-68.28
-65.81
-61.85
-56.71
-51.03
-45.57
-40.80
-36.84
-33.56
-30.67
-28.02
-25.60
-23.59
-22.20
-21.53
-21.44
-21.62
-21.66
-21.18
-20.01
-18.21
-16.07
-13.94
-12.13
-10.80
-9.88
-9.20
-8.52
-7.67
-6.60
-5.35
-4.05
-2.88
-1.95
-1.34
-1.03
-0.92
-0.88
-0.80
-0.64
-0.42
-0.26
-0.27
-0.51
-0.97
-1.55
-2.15
-2.66
-3.08
-3.40
-3.63
-3.73
-3.64
-3.30
-2.70
-1.93
-1.12
-0.43
0.05
0.34
0.53
0.71
0.91
1.08
1.14
1.02
0.72
0.34
-0.02
-0.28
-0.43
-0.51
-0.56
-0.58
-0.55
-0.43
-0.24
-0.03
0.11
0.15
0.08
-0.07
-0.22
-0.36
-0.44
-0.47
-0.46
-0.41
-0.34
-0.26
-0.16
-0.03
0.13
0.32
0.49
0.60
0.61
0.51
0.35
0.19
0.09
0.05
0.05
0.03
-0.02
-0.09
-0.17
-0.22
-0.23
-0.19
-0.12
-0.04
0.05
0.11
0.13
0.11
0.05
-0.06
-0.19
-0.37
-0.56
-0.74
-0.87
-0.91
-0.86
-0.75
-0.61
-0.47
-0.32
-0.15
0.05
0.24
0.35
0.35
0.26
0.17
0.18
0.35
0.64
0.96
1.17
1.20
1.03
0.73
0.40
0.13
-0.03
-0.07
-0.03
0.05
0.10
0.09
0.01
-0.14
-0.30
-0.43
-0.49
-0.44
-0.27
-0.04
0.21
0.37
0.40
0.26
0.01
-0.28
-0.53
-0.70
-0.77
-0.76
-0.66
-0.50
-0.29
-0.06
0.12
0.23
0.24
0.19
0.14
0.11
0.08
0.03
-0.06
-0.16
-0.20
-0.11
0.12
0.44
0.74
0.91
0.90
0.76
0.58
0.44
0.38
0.37
0.32
0.19
-0.01
-0.22
-0.33
-0.27
-0.04
0.26
0.51
0.59
0.45
0.18
-0.10
-0.25
-0.22
-0.06
0.11
0.19
0.12
-0.06
-0.26
-0.44
-0.61
-0.76
-0.88
-0.92
-0.81
-0.53
-0.19
0.08
0.17
0.06
-0.12
-0.21
-0.08
0.27
0.67
0.95
0.95
0.67
0.23
-0.23
-0.60
-0.82
-0.90
-0.89
-0.82
-0.68
-0.49
-0.27
-0.04
0.15
0.25
0.28
0.24
0.19
0.15
0.16
0.21
0.26
0.27
0.21
0.08
-0.09
-0.21
-0.22
-0.09
0.17
0.50
0.82
1.03
1.09
0.99
0.79
0.58
0.42
0.33
0.28
0.19
0.02
-0.23
-0.54
-0.82
-1.02
-1.09
-1.03
-0.83
-0.52
-0.15
0.22
0.49
0.59
0.50
0.26
-0.08
-0.40
-0.64
-0.75
-0.74
-0.62
-0.44
-0.26
-0.08
0.09
0.28
0.45
0.54
0.47
0.20
-0.24
-0.70
-1.00
-1.03
-0.77
-0.35
0.05
0.28
0.28
0.10
-0.17
-0.39
-0.49
-0.43
-0.24
0.02
0.29
0.50
0.63
0.67
0.63
0.53
0.38
0.21
0.05
-0.02
0.02
0.14
0.28
0.35
0.30
0.16
-0.00
-0.10
-0.09
0.01
0.15
0.29
0.39
0.43
0.43
0.41
0.38
0.38
0.42
0.49
0.55
0.54
0.46
0.33
0.25
0.29
0.43
0.59
0.63
0.48
0.16
-0.18
-0.38
-0.32
-0.08
0.19
0.34
0.29
0.07
-0.16
-0.28
-0.22
-0.05
0.11
0.15
0.04
-0.20
-0.45
-0.62
-0.65
-0.55
-0.38
-0.19
-0.02
0.12
0.25
0.38
0.50
0.60
0.65
0.65
0.58
0.43
0.20
-0.09
-0.36
-0.55
-0.62
-0.58
-0.53
-0.54
-0.68
-0.89
-1.09
-1.17
-1.09
-0.88
-0.60
-0.34
-0.10
0.13
0.39
0.65
0.85
0.92
0.83
0.62
0.42
0.36
0.45
0.65
0.79
0.72
0.40
-0.06
-0.51
-0.78
-0.83
-0.76
-0.69
-0.74
-0.88
-1.02
-1.03
-0.87
-0.59
-0.32
-0.17
-0.16
-0.21
-0.23
-0.15
0.04
0.24
0.37
0.38
0.29
0.20
0.16
0.18
0.20
0.15
-0.00
-0.22
-0.40
-0.48
-0.40
-0.22
-0.02
0.12
0.22
0.29
0.37
0.46
0.50
0.39
0.11
-0.27
-0.63
-0.82
-0.76
-0.51
-0.21
-0.02
-0.01
-0.12
-0.21
-0.13
0.17
0.58
0.95
1.09
0.95
0.59
0.16
-0.19
-0.40
-0.52
-0.63
-0.83
-1.12
-1.41
-1.56
-1.48
-1.17
-0.72
-0.30
-0.03
0.05
0.04
0.04
0.13
0.30
0.47
0.54
0.46
0.30
0.14
0.05
0.05
0.11
0.21
0.34
0.50
0.70
0.87
0.94
0.86
0.67
0.50
0.46
0.61
0.91
1.22
1.37
1.30
1.01
0.61
0.23
-0.03
-0.10
-0.01
0.17
0.35
0.42
0.36
0.21
0.05
-0.01
0.09
0.34
0.64
0.88
0.95
0.84
0.57
0.21
-0.19
-0.58
-0.90
-1.10
-1.11
-0.91
-0.52
-0.07
0.29
0.42
0.30
-0.02
-0.39
-0.63
-0.66
-0.48
-0.16
0.21
0.54
0.80
0.94
0.94
0.76
0.42
-0.04
-0.52
-0.88
-1.02
-0.93
-0.67
-0.40
-0.24
-0.27
-0.43
-0.57
-0.55
-0.30
0.14
0.63
0.99
1.14
1.10
0.98
0.89
0.89
0.94
1.00
1.04
1.10
1.24
1.51
1.83
2.06
2.06
1.76
1.20
0.54
-0.03
-0.38
-0.47
-0.39
-0.26
-0.18
-0.20
-0.32
-0.50
-0.68
-0.86
-1.04
-1.22
-1.39
-1.51
-1.54
-1.47
-1.31
-1.12
-0.96
-0.86
-0.79
-0.71
-0.54
-0.27
0.07
0.37
0.52
0.44
0.12
-0.38
-0.94
-1.38
-1.58
-1.45
-1.05
-0.48
0.07
0.44
0.56
0.42
0.14
-0.17
-0.41
-0.56
-0.62
-0.62
-0.60
-0.55
-0.49
-0.41
-0.29
-0.15
0.02
0.19
0.33
0.36
0.27
0.04
-0.25
-0.47
-0.52
-0.34
0.02
0.46
0.86
1.14
1.26
1.24
1.12
0.92
0.71
0.51
0.34
0.19
0.04
-0.14
-0.35
-0.54
-0.60
-0.49
-0.21
0.12
0.37
0.40
0.22
-0.10
-0.39
-0.58
-0.64
-0.68
-0.78
-0.97
-1.16
-1.22
-1.02
-0.54
0.09
0.70
1.13
1.34
1.37
1.31
1.23
1.13
0.98
0.76
0.52
0.34
0.29
0.34
0.43
0.46
0.37
0.19
-0.03
-0.21
-0.31
-0.31
-0.24
-0.11
0.02
0.12
0.13
0.05
-0.07
-0.17
-0.19
-0.16
-0.15
-0.21
-0.32
-0.39
-0.32
-0.11
0.14
0.26
0.14
-0.20
-0.58
-0.79
-0.74
-0.48
-0.17
-0.01
-0.02
-0.13
-0.18
-0.10
0.09
0.26
0.27
0.10
-0.18
-0.41
-0.48
-0.33
-0.06
0.18
0.26
0.13
-0.15
-0.45
-0.65
-0.67
-0.52
-0.25
0.08
0.38
0.62
0.76
0.80
0.73
0.55
0.29
0.01
-0.20
-0.26
-0.14
0.11
0.37
0.53
0.52
0.36
0.17
0.05
0.06
0.16
0.23
0.18
-0.03
-0.32
-0.56
-0.62
-0.46
-0.13
0.26
0.59
0.77
0.78
0.62
0.33
-0.03
-0.41
-0.72
-0.86
-0.77
-0.46
-0.02
0.38
0.62
0.62
0.42
0.11
-0.14
-0.26
-0.21
-0.04
0.18
0.38
0.54
0.65
0.70
0.67
0.53
0.26
-0.08
-0.39
-0.58
-0.59
-0.46
-0.26
-0.14
-0.18
-0.39
-0.70
-1.01
-1.19
-1.20
-1.03
-0.72
-0.34
0.02
0.33
0.54
0.63
0.57
0.34
-0.02
-0.44
-0.81
-1.00
-0.98
-0.80
-0.55
-0.28
-0.03
0.22
0.48
0.71
0.82
0.71
0.39
-0.04
-0.42
-0.64
-0.67
-0.57
-0.47
-0.39
-0.31
-0.14
0.16
0.56
0.94
1.16
1.17
1.01
0.81
0.69
0.71
0.82
0.94
0.98
0.93
0.83
0.75
0.69
0.65
0.58
0.44
0.28
0.14
0.08
0.09
0.12
0.09
-0.03
-0.22
-0.40
-0.49
-0.45
-0.34
-0.21
-0.16
-0.20
-0.34
-0.54
-0.73
-0.87
-0.91
-0.85
-0.73
-0.60
-0.50
-0.46
-0.44
-0.40
-0.32
-0.23
-0.20
-0.26
-0.40
-0.53
-0.57
-0.45
-0.21
0.06
0.25
0.30
0.23
0.11
0.01
0.00
0.07
0.16
0.23
0.23
0.17
0.10
0.07
0.10
0.17
0.24
0.27
0.23
0.17
0.15
0.19
0.28
0.38
0.41
0.38
0.33
0.34
0.44
0.59
0.71
0.69
0.50
0.20
-0.11
-0.34
-0.44
-0.45
-0.43
-0.41
-0.38
-0.29
-0.10
0.13
0.28
0.26
0.05
-0.23
-0.43
-0.39
-0.13
0.25
0.59
0.77
0.80
0.76
0.75
0.79
0.80
0.67
0.35
-0.09
-0.53
-0.83
-0.94
-0.91
-0.81
-0.75
-0.74
-0.75
-0.73
-0.61
-0.38
-0.07
0.24
0.49
0.61
0.60
0.51
0.40
0.29
0.19
0.05
-0.15
-0.36
-0.48
-0.43
-0.19
0.17
0.51
0.68
0.65
0.46
0.24
0.07
0.04
0.13
0.28
0.44
0.54
0.53
0.41
0.19
-0.08
-0.36
-0.58
-0.72
-0.78
-0.74
-0.57
-0.29
0.04
0.32
0.44
0.34
0.04
-0.35
-0.69
-0.87
-0.86
-0.71
-0.52
-0.34
-0.23
-0.15
-0.05
0.08
0.24
0.40
0.51
0.54
0.51
0.49
0.50
0.58
0.68
0.75
0.71
0.54
0.30
0.06
-0.09
-0.11
0.00
0.18
0.33
0.36
0.24
-0.03
-0.34
-0.58
-0.64
-0.47
-0.15
0.19
0.38
0.33
0.05
-0.34
-0.68
-0.85
-0.83
-0.69
-0.54
-0.44
-0.39
-0.35
-0.24
-0.04
0.20
0.38
0.45
0.39
0.26
0.14
0.08
0.05
-0.02
-0.15
-0.31
-0.42
-0.41
-0.27
-0.12
-0.07
-0.23
-0.52
-0.81
-0.90
-0.73
-0.37
0.00
0.23
0.25
0.15
0.06
0.10
0.27
0.50
0.69
0.77
0.76
0.71
0.70
0.76
0.86
0.93
0.93
0.84
0.68
0.51
0.33
0.17
0.02
-0.10
-0.18
-0.19
-0.16
-0.14
-0.17
-0.28
-0.42
-0.54
-0.58
-0.54
-0.46
-0.38
-0.36
-0.39
-0.44
-0.45
-0.36
-0.16
0.13
0.45
0.73
0.86
0.82
0.64
0.40
0.22
0.18
0.27
0.42
0.56
0.60
0.52
0.35
0.12
-0.09
-0.27
-0.40
-0.52
-0.63
-0.72
-0.77
-0.74
-0.62
-0.44
-0.28
-0.21
-0.29
-0.48
-0.71
-0.86
-0.85
-0.67
-0.38
-0.08
0.15
0.27
0.28
0.22
0.14
0.08
0.04
0.00
-0.07
-0.20
-0.35
-0.46
-0.46
-0.31
-0.06
0.17
0.28
0.22
0.06
-0.06
-0.04
0.16
0.44
0.62
0.58
0.32
-0.08
-0.42
-0.56
-0.43
-0.10
0.32
0.68
0.90
0.96
0.91
0.79
0.64
0.48
0.31
0.17
0.11
0.18
0.40
0.72
1.08
1.36
1.44
1.27
0.87
0.34
-0.16
-0.51
-0.62
-0.52
-0.31
-0.13
-0.06
-0.12
-0.26
-0.38
-0.43
-0.43
-0.43
-0.48
-0.59
-0.71
-0.73
-0.61
-0.37
-0.12
-0.00
-0.09
-0.34
-0.62
-0.76
-0.67
-0.37
0.03
0.37
0.54
0.54
0.39
0.18
-0.02
-0.16
-0.20
-0.16
-0.06
0.06
0.14
0.15
0.10
0.02
-0.05
-0.05
0.01
0.12
0.23
0.30
0.30
0.23
0.10
-0.04
-0.13
-0.15
-0.07
0.06
0.18
0.24
0.22
0.18
0.16
0.19
0.26
0.27
0.18
-0.05
-0.33
-0.57
-0.69
-0.66
-0.55
-0.42
-0.34
-0.28
-0.22
-0.13
-0.03
0.04
0.08
0.10
0.12
0.15
0.15
0.07
-0.11
-0.33
-0.49
-0.46
-0.19
0.24
0.70
1.01
1.08
0.91
0.58
0.18
-0.15
-0.39
-0.52
-0.56
-0.57
-0.60
-0.65
-0.68
-0.62
-0.43
-0.09
0.29
0.62
0.76
0.67
0.42
0.11
-0.15
-0.29
-0.33
-0.31
-0.26
-0.21
-0.15
-0.07
0.01
0.04
-0.03
-0.23
-0.50
-0.74
-0.81
-0.65
-0.28
0.15
0.51
0.68
0.66
0.56
0.49
0.53
0.66
0.77
0.76
0.58
0.23
-0.17
-0.51
-0.68
-0.64
-0.41
-0.08
0.24
0.48
0.60
0.58
0.43
0.21
-0.03
-0.22
-0.30
-0.25
-0.08
0.15
0.37
0.51
0.53
0.46
0.34
0.22
0.12
0.05
0.01
-0.00
0.03
0.10
0.19
0.24
0.21
0.08
-0.14
-0.37
-0.49
-0.46
-0.33
-0.19
-0.16
-0.28
-0.50
-0.69
-0.74
-0.61
-0.35
-0.07
0.10
0.13
0.01
-0.18
-0.35
-0.44
-0.42
-0.30
-0.13
0.04
0.16
0.23
0.27
0.32
0.40
0.51
0.60
0.64
0.58
0.45
0.28
0.12
0.01
-0.04
-0.08
-0.12
-0.18
-0.21
-0.18
-0.05
0.16
0.36
0.48
0.49
0.38
0.24
0.10
0.01
-0.03
-0.04
-0.01
0.09
0.29
0.59
0.90
1.14
1.21
1.10
0.87
0.60
0.35
0.15
-0.05
-0.27
-0.55
-0.84
-1.10
-1.27
-1.32
-1.23
-1.04
-0.76
-0.46
-0.19
-0.01
0.04
-0.05
-0.24
-0.44
-0.60
-0.67
-0.65
-0.55
-0.42
-0.28
-0.14
0.02
0.21
0.42
0.65
0.87
1.02
1.06
0.96
0.72
0.37
0.01
-0.29
-0.46
-0.49
-0.44
-0.33
-0.21
-0.07
0.07
0.22
0.33
0.33
0.19
-0.06
-0.32
-0.48
-0.47
-0.30
-0.09
0.02
-0.05
-0.30
-0.62
-0.90
-1.02
-0.94
-0.70
-0.34
0.07
0.50
0.89
1.19
1.35
1.32
1.10
0.70
0.17
-0.39
-0.87
-1.16
-1.17
-0.87
-0.36
0.24
0.74
1.04
1.09
0.97
0.76
0.54
0.34
0.16
-0.01
-0.20
-0.37
-0.52
-0.63
-0.68
-0.67
-0.59
-0.47
-0.36
-0.27
-0.24
-0.23
-0.17
-0.02
0.24
0.53
0.75
0.83
0.75
0.58
0.39
0.26
0.19
0.14
0.10
0.06
0.04
0.07
0.14
0.19
0.18
0.07
-0.11
-0.27
-0.35
-0.30
-0.14
0.09
0.33
0.52
0.63
0.61
0.44
0.12
-0.29
-0.69
-0.95
-1.01
-0.87
-0.62
-0.37
-0.20
-0.13
-0.09
-0.04
0.05
0.14
0.14
0.02
-0.21
-0.47
-0.67
-0.70
-0.54
-0.21
0.18
0.51
0.68
0.64
0.43
0.17
-0.04
-0.08
0.03
0.23
0.37
0.35
0.12
-0.22
-0.51
-0.60
-0.45
-0.12
0.23
0.45
0.46
0.28
0.06
-0.10
-0.12
-0.03
0.12
0.27
0.37
0.43
0.43
0.38
0.27
0.10
-0.06
-0.19
-0.24
-0.22
-0.19
-0.17
-0.19
-0.26
-0.33
-0.40
-0.46
-0.52
-0.61
-0.73
-0.85
-0.89
-0.78
-0.46
0.03
0.56
0.94
1.00
0.74
0.31
-0.05
-0.15
0.07
0.47
0.82
0.96
0.89
0.71
0.57
0.53
0.53
0.45
0.22
-0.14
-0.51
-0.74
-0.73
-0.54
-0.28
-0.10
-0.10
-0.24
-0.41
-0.48
-0.37
-0.13
0.13
0.26
